Time,Time_s,ADS1292R_Raw,ADS1292R_Filtered,BPM
2026-08-24 22:57:08.640590,0.008541345596313477,-431.0,-24.0,0.0
2026-08-24 22:57:08.649210,0.017160892486572266,-420.0,-22.0,0.0
2026-08-24 22:57:08.658576,0.02652740478515625,-428.0,-20.0,0.0
2026-08-24 22:57:08.672098,0.04004955291748047,-438.0,-18.0,0.0
2026-08-24 22:57:08.674100,0.04205060005187988,-409.0,-13.0,0.0
2026-08-24 22:57:08.681620,0.04957151412963867,-445.0,-9.0,0.0
2026-08-24 22:57:08.690465,0.05841636657714844,-430.0,-7.0,0.0
2026-08-24 22:57:08.696478,0.06442880630493164,-440.0,-4.0,0.0
2026-08-24 22:57:08.704511,0.07246208190917969,-458.0,-1.0,0.0
2026-08-24 22:57:08.712049,0.08000040054321289,-434.0,-1.0,0.0
2026-08-24 22:57:08.720897,0.08884811401367188,-461.0,1.0,0.0
2026-08-24 22:57:08.728807,0.09675788879394531,-441.0,2.0,0.0
2026-08-24 22:57:08.735964,0.10391473770141602,-457.0,2.0,0.0
2026-08-24 22:57:08.744483,0.11243367195129395,-463.0,3.0,0.0
2026-08-24 22:57:08.752481,0.12043237686157227,-439.0,4.0,0.0
2026-08-24 22:57:08.761019,0.12896966934204102,-477.0,3.0,0.0
2026-08-24 22:57:08.768528,0.13647961616516113,-461.0,2.0,0.0
2026-08-24 22:57:08.777044,0.14499521255493164,-481.0,2.0,0.0
2026-08-24 22:57:08.785552,0.1535031795501709,-499.0,0.0,0.0
2026-08-24 22:57:08.793561,0.1615123748779297,-482.0,-1.0,0.0
2026-08-24 22:57:08.801659,0.16960954666137695,-515.0,0.0,0.0
2026-08-24 22:57:08.809698,0.17764925956726074,-498.0,0.0,0.0
2026-08-24 22:57:08.817224,0.18517494201660156,-520.0,0.0,0.0
2026-08-24 22:57:08.825218,0.19316959381103516,-527.0,1.0,0.0
2026-08-24 22:57:08.832847,0.20079851150512695,-504.0,2.0,0.0
2026-08-24 22:57:08.841358,0.20930910110473633,-540.0,1.0,0.0
2026-08-24 22:57:08.849465,0.21741604804992676,-513.0,1.0,0.0
2026-08-24 22:57:08.866499,0.2344498634338379,-527.0,0.0,0.0
2026-08-24 22:57:08.871498,0.23944950103759766,-526.0,0.0,0.0
2026-08-24 22:57:08.884554,0.2525050640106201,-492.0,0.0,0.0
2026-08-24 22:57:08.885331,0.2532825469970703,-503.0,1.0,0.0
2026-08-24 22:57:08.889341,0.2572922706604004,-464.0,0.0,0.0
2026-08-24 22:57:08.897918,0.2658693790435791,-469.0,0.0,0.0
2026-08-24 22:57:08.905578,0.2735292911529541,-455.0,1.0,0.0
2026-08-24 22:57:08.913387,0.2813377380371094,-426.0,2.0,0.0
2026-08-24 22:57:08.921579,0.28953027725219727,-454.0,2.0,0.0
2026-08-24 22:57:08.930137,0.29808807373046875,-423.0,1.0,0.0
2026-08-24 22:57:08.937149,0.3051004409790039,-444.0,0.0,0.0
2026-08-24 22:57:08.945670,0.31362080574035645,-448.0,0.0,0.0
2026-08-24 22:57:08.953193,0.32114386558532715,-426.0,0.0,0.0
2026-08-24 22:57:08.961714,0.3296654224395752,-450.0,1.0,0.0
2026-08-24 22:57:08.969236,0.3371870517730713,-423.0,1.0,0.0
2026-08-24 22:57:08.977728,0.34567928314208984,-443.0,0.0,0.0
2026-08-24 22:57:08.985992,0.35394287109375,-438.0,1.0,0.0
2026-08-24 22:57:08.993126,0.36107730865478516,-419.0,2.0,0.0
2026-08-24 22:57:09.001247,0.3691980838775635,-449.0,2.0,0.0
2026-08-24 22:57:09.009594,0.3775455951690674,-423.0,1.0,0.0
2026-08-24 22:57:09.017609,0.3855605125427246,-445.0,0.0,0.0
2026-08-24 22:57:09.025645,0.39359569549560547,-447.0,-1.0,0.0
2026-08-24 22:57:09.033792,0.40174317359924316,-432.0,-1.0,0.0
2026-08-24 22:57:09.041051,0.40900206565856934,-450.0,0.0,0.0
2026-08-24 22:57:09.049513,0.4174637794494629,-424.0,0.0,0.0
2026-08-24 22:57:09.057035,0.4249861240386963,-442.0,0.0,0.0
2026-08-24 22:57:09.065318,0.43326902389526367,-432.0,0.0,0.0
2026-08-24 22:57:09.073580,0.441530704498291,-420.0,1.0,0.0
2026-08-24 22:57:09.081410,0.44936060905456543,-446.0,-1.0,0.0
2026-08-24 22:57:09.089322,0.4572732448577881,-419.0,-2.0,0.0
2026-08-24 22:57:09.097020,0.46497082710266113,-442.0,-2.0,0.0
2026-08-24 22:57:09.105308,0.47325968742370605,-440.0,-5.0,0.0
2026-08-24 22:57:09.113890,0.4818410873413086,-427.0,-6.0,0.0
2026-08-24 22:57:09.121959,0.4899101257324219,-445.0,-4.0,0.0
2026-08-24 22:57:09.134773,0.5027239322662354,-417.0,-3.0,0.0
2026-08-24 22:57:09.137734,0.505685567855835,-438.0,-3.0,0.0
2026-08-24 22:57:09.145828,0.5137794017791748,-424.0,0.0,0.0
2026-08-24 22:57:09.153962,0.5219132900238037,-414.0,4.0,0.0
2026-08-24 22:57:09.161879,0.5298299789428711,-442.0,2.0,0.0
2026-08-24 22:57:09.169938,0.5378890037536621,-413.0,1.0,0.0
2026-08-24 22:57:09.178048,0.5459990501403809,-438.0,2.0,0.0
2026-08-24 22:57:09.185655,0.5536060333251953,-433.0,0.0,0.0
2026-08-24 22:57:09.193530,0.561481237411499,-425.0,0.0,0.0
2026-08-24 22:57:09.201772,0.56972336769104,-441.0,3.0,0.0
2026-08-24 22:57:09.209819,0.5777699947357178,-414.0,2.0,0.0
2026-08-24 22:57:09.216893,0.5848441123962402,-438.0,-2.0,0.0
2026-08-24 22:57:09.225704,0.5936555862426758,-419.0,-9.0,0.0
2026-08-24 22:57:09.234077,0.6020281314849854,-416.0,-33.0,0.0
2026-08-24 22:57:09.241591,0.6095423698425293,-441.0,-58.0,0.0
2026-08-24 22:57:09.249591,0.617542028427124,-411.0,-50.0,0.0
2026-08-24 22:57:09.257635,0.6255860328674316,-441.0,-13.0,0.0
2026-08-24 22:57:09.265537,0.6334881782531738,-432.0,10.0,0.0
2026-08-24 22:57:09.273779,0.6417300701141357,-427.0,8.0,0.0
2026-08-24 22:57:09.280778,0.6487290859222412,-445.0,3.0,0.0
2026-08-24 22:57:09.289386,0.6573376655578613,-419.0,2.0,0.0
2026-08-24 22:57:09.297681,0.6656324863433838,-446.0,-1.0,0.0
2026-08-24 22:57:09.305738,0.6736888885498047,-431.0,0.0,0.0
2026-08-24 22:57:09.313849,0.681800365447998,-434.0,2.0,0.0
2026-08-24 22:57:09.320486,0.6884377002716064,-459.0,0.0,0.0
2026-08-24 22:57:09.330018,0.6979687213897705,-430.0,-2.0,0.0
2026-08-24 22:57:09.337583,0.7055337429046631,-456.0,-2.0,0.0
2026-08-24 22:57:09.346226,0.7141768932342529,-437.0,-4.0,0.0
2026-08-24 22:57:09.353716,0.7216668128967285,-431.0,-5.0,0.0
2026-08-24 22:57:09.362271,0.7302217483520508,-439.0,-3.0,0.0
2026-08-24 22:57:09.369815,0.7377665042877197,-411.0,-5.0,0.0
2026-08-24 22:57:09.378479,0.7464303970336914,-436.0,-7.0,0.0
2026-08-24 22:57:09.386432,0.7543835639953613,-409.0,-5.0,0.0
2026-08-24 22:57:09.394439,0.76239013671875,-417.0,-5.0,0.0
2026-08-24 22:57:09.402221,0.7701716423034668,-436.0,-7.0,0.0
2026-08-24 22:57:09.410735,0.7786860466003418,-404.0,-9.0,0.0
2026-08-24 22:57:09.418212,0.786163330078125,-435.0,-10.0,0.0
2026-08-24 22:57:09.425678,0.7936286926269531,-436.0,-13.0,0.0
2026-08-24 22:57:09.434475,0.8024263381958008,-489.0,-14.0,0.0
2026-08-24 22:57:09.442824,0.810774564743042,-600.0,-14.0,0.0
2026-08-24 22:57:09.450666,0.818617582321167,-665.0,-17.0,0.0
2026-08-24 22:57:09.459011,0.8269622325897217,-612.0,-19.0,0.0
2026-08-24 22:57:09.466763,0.8347136974334717,-437.0,-18.0,0.0
2026-08-24 22:57:09.474442,0.8423926830291748,-386.0,-18.0,0.0
2026-08-24 22:57:09.482551,0.8505020141601562,-424.0,-19.0,0.0
2026-08-24 22:57:09.490383,0.8583345413208008,-411.0,-19.0,0.0
2026-08-24 22:57:09.498690,0.8666415214538574,-450.0,-19.0,0.0
2026-08-24 22:57:09.506483,0.8744344711303711,-431.0,-18.0,0.0
2026-08-24 22:57:09.514703,0.8826537132263184,-442.0,-14.0,0.0
2026-08-24 22:57:09.522445,0.8903958797454834,-449.0,-9.0,0.0
2026-08-24 22:57:09.529990,0.8979406356811523,-428.0,-7.0,0.0
2026-08-24 22:57:09.538159,0.9061102867126465,-455.0,-3.0,0.0
2026-08-24 22:57:09.546691,0.914642333984375,-427.0,1.0,0.0
2026-08-24 22:57:09.554074,0.9220249652862549,-446.0,3.0,0.0
2026-08-24 22:57:09.562426,0.9303770065307617,-462.0,3.0,0.0
2026-08-24 22:57:09.570022,0.9379734992980957,-438.0,3.0,0.0
2026-08-24 22:57:09.578179,0.9461305141448975,-474.0,3.0,0.0
2026-08-24 22:57:09.586840,0.9547915458679199,-454.0,2.0,0.0
2026-08-24 22:57:09.594302,0.9622533321380615,-471.0,2.0,0.0
2026-08-24 22:57:09.602003,0.9699544906616211,-479.0,3.0,0.0
2026-08-24 22:57:09.610788,0.9787395000457764,-461.0,2.0,0.0
2026-08-24 22:57:09.618152,0.986102819442749,-491.0,2.0,0.0
2026-08-24 22:57:09.626823,0.9947741031646729,-464.0,3.0,0.0
2026-08-24 22:57:09.634351,1.0023019313812256,-491.0,3.0,0.0
2026-08-24 22:57:09.643044,1.0109946727752686,-510.0,3.0,0.0
2026-08-24 22:57:09.650582,1.0185329914093018,-495.0,2.0,0.0
2026-08-24 22:57:09.658634,1.0265851020812988,-533.0,1.0,0.0
2026-08-24 22:57:09.666110,1.0340614318847656,-517.0,-1.0,0.0
2026-08-24 22:57:09.673779,1.0417306423187256,-539.0,0.0,0.0
2026-08-24 22:57:09.682314,1.050264835357666,-542.0,1.0,0.0
2026-08-24 22:57:09.690460,1.058410882949829,-524.0,1.0,0.0
2026-08-24 22:57:09.697684,1.0656352043151855,-542.0,2.0,0.0
2026-08-24 22:57:09.706592,1.0745432376861572,-506.0,3.0,0.0
2026-08-24 22:57:09.714251,1.0822021961212158,-519.0,2.0,0.0
2026-08-24 22:57:09.722738,1.090688943862915,-514.0,2.0,0.0
2026-08-24 22:57:09.730318,1.098268747329712,-480.0,2.0,0.0
2026-08-24 22:57:09.738616,1.106567621231079,-495.0,2.0,0.0
2026-08-24 22:57:09.746910,1.1148605346679688,-459.0,0.0,0.0
2026-08-24 22:57:09.754382,1.1223335266113281,-468.0,0.0,0.0
2026-08-24 22:57:09.762381,1.1303319931030273,-459.0,1.0,0.0
2026-08-24 22:57:09.770539,1.1384904384613037,-437.0,2.0,0.0
2026-08-24 22:57:09.778857,1.1468079090118408,-457.0,2.0,0.0
2026-08-24 22:57:09.786993,1.1549441814422607,-421.0,3.0,0.0
2026-08-24 22:57:09.794541,1.162492036819458,-443.0,3.0,0.0
2026-08-24 22:57:09.803036,1.1709873676300049,-448.0,2.0,0.0
2026-08-24 22:57:09.811071,1.1790220737457275,-431.0,1.0,0.0
2026-08-24 22:57:09.818498,1.1864495277404785,-459.0,1.0,0.0
2026-08-24 22:57:09.826626,1.1945774555206299,-434.0,0.0,0.0
2026-08-24 22:57:09.834823,1.2027740478515625,-455.0,0.0,0.0
2026-08-24 22:57:09.842376,1.2103271484375,-449.0,1.0,0.0
2026-08-24 22:57:09.850126,1.2180771827697754,-437.0,1.0,0.0
2026-08-24 22:57:09.858693,1.2266438007354736,-458.0,1.0,0.0
2026-08-24 22:57:09.866827,1.2347779273986816,-423.0,3.0,0.0
2026-08-24 22:57:09.875058,1.2430088520050049,-451.0,3.0,0.0
2026-08-24 22:57:09.882742,1.2506935596466064,-450.0,1.0,0.0
2026-08-24 22:57:09.891144,1.2590956687927246,-437.0,1.0,0.0
2026-08-24 22:57:09.898347,1.2662980556488037,-465.0,1.0,0.0
2026-08-24 22:57:09.907724,1.2756752967834473,-434.0,0.0,0.0
2026-08-24 22:57:09.915011,1.2829623222351074,-460.0,0.0,0.0
2026-08-24 22:57:09.923433,1.291383981704712,-448.0,0.0,0.0
2026-08-24 22:57:09.930498,1.2984492778778076,-437.0,-1.0,0.0
2026-08-24 22:57:09.939023,1.3069744110107422,-455.0,-1.0,0.0
2026-08-24 22:57:09.946943,1.314894199371338,-420.0,0.0,0.0
2026-08-24 22:57:09.953988,1.32193922996521,-449.0,-2.0,0.0
2026-08-24 22:57:09.963638,1.3315889835357666,-445.0,-4.0,0.0
2026-08-24 22:57:09.970367,1.338317632675171,-434.0,-3.0,0.0
2026-08-24 22:57:09.979537,1.3474881649017334,-459.0,-3.0,0.0
2026-08-24 22:57:09.986885,1.3548362255096436,-428.0,-3.0,0.0
2026-08-24 22:57:09.995009,1.362959861755371,-454.0,0.0,0.0
2026-08-24 22:57:10.002915,1.3708665370941162,-441.0,2.0,0.0
2026-08-24 22:57:10.010375,1.378326416015625,-435.0,1.0,0.0
2026-08-24 22:57:10.018588,1.3865387439727783,-448.0,2.0,0.0
2026-08-24 22:57:10.026629,1.3945798873901367,-420.0,4.0,0.0
2026-08-24 22:57:10.035344,1.403294563293457,-452.0,2.0,0.0
2026-08-24 22:57:10.043489,1.4114398956298828,-434.0,2.0,0.0
2026-08-24 22:57:10.051682,1.419632911682129,-431.0,3.0,0.0
2026-08-24 22:57:10.059194,1.4271447658538818,-454.0,1.0,0.0
2026-08-24 22:57:10.067394,1.4353446960449219,-422.0,-3.0,0.0
2026-08-24 22:57:10.075331,1.4432823657989502,-453.0,-14.0,0.0
2026-08-24 22:57:10.083543,1.4514939785003662,-435.0,-40.0,0.0
2026-08-24 22:57:10.091071,1.4590227603912354,-434.0,-60.0,0.0
2026-08-24 22:57:10.099297,1.4672479629516602,-452.0,-41.0,0.0
2026-08-24 22:57:10.107229,1.47517991065979,-421.0,-2.0,0.0
2026-08-24 22:57:10.115914,1.483865737915039,-462.0,14.0,0.0
2026-08-24 22:57:10.123717,1.4916682243347168,-450.0,6.0,0.0
2026-08-24 22:57:10.131149,1.4991004467010498,-451.0,2.0,0.0
2026-08-24 22:57:10.138878,1.506828784942627,-468.0,1.0,0.0
2026-08-24 22:57:10.147696,1.5156474113464355,-431.0,-1.0,0.0
2026-08-24 22:57:10.154863,1.5228137969970703,-457.0,-2.0,0.0
2026-08-24 22:57:10.163710,1.531660556793213,-431.0,-1.0,0.0
2026-08-24 22:57:10.170933,1.5388844013214111,-432.0,-2.0,0.0
2026-08-24 22:57:10.179733,1.5476839542388916,-442.0,-1.0,0.0
2026-08-24 22:57:10.187672,1.5556230545043945,-411.0,0.0,0.0
2026-08-24 22:57:10.195148,1.5630991458892822,-442.0,-2.0,0.0
2026-08-24 22:57:10.203552,1.571502685546875,-424.0,-4.0,0.0
2026-08-24 22:57:10.211101,1.5790526866912842,-426.0,-4.0,0.0
2026-08-24 22:57:10.219079,1.5870301723480225,-442.0,-5.0,0.0
2026-08-24 22:57:10.227227,1.5951783657073975,-422.0,-7.0,0.0
2026-08-24 22:57:10.235826,1.6037774085998535,-491.0,-7.0,0.0
2026-08-24 22:57:10.243180,1.6111314296722412,-546.0,-7.0,0.0
2026-08-24 22:57:10.251843,1.6197938919067383,-667.0,-9.0,0.0
2026-08-24 22:57:10.259574,1.6275246143341064,-647.0,-8.0,0.0
2026-08-24 22:57:10.266928,1.6348788738250732,-479.0,-8.0,0.0
2026-08-24 22:57:10.276284,1.6442348957061768,-405.0,-11.0,0.0
2026-08-24 22:57:10.283652,1.6516032218933105,-387.0,-14.0,0.0
2026-08-24 22:57:10.291766,1.6597168445587158,-417.0,-16.0,0.0
2026-08-24 22:57:10.299450,1.6674010753631592,-444.0,-18.0,0.0
2026-08-24 22:57:10.307138,1.675088882446289,-420.0,-20.0,0.0
2026-08-24 22:57:10.315954,1.6839053630828857,-452.0,-21.0,0.0
2026-08-24 22:57:10.324103,1.692054033279419,-431.0,-22.0,0.0
2026-08-24 22:57:10.331480,1.6994311809539795,-439.0,-21.0,0.0
2026-08-24 22:57:10.340013,1.7079637050628662,-450.0,-19.0,0.0
2026-08-24 22:57:10.347795,1.7157456874847412,-429.0,-16.0,0.0
2026-08-24 22:57:10.355259,1.723210334777832,-460.0,-15.0,0.0
2026-08-24 22:57:10.363172,1.7311227321624756,-443.0,-13.0,0.0
2026-08-24 22:57:10.371692,1.7396435737609863,-452.0,-9.0,0.0
2026-08-24 22:57:10.379373,1.7473244667053223,-470.0,-5.0,0.0
2026-08-24 22:57:10.387586,1.755537509918213,-448.0,-4.0,0.0
2026-08-24 22:57:10.395114,1.7630650997161865,-479.0,-1.0,0.0
2026-08-24 22:57:10.403406,1.7713572978973389,-457.0,1.0,0.0
2026-08-24 22:57:10.411772,1.7797229290008545,-470.0,2.0,0.0
2026-08-24 22:57:10.419632,1.787583351135254,-481.0,4.0,0.0
2026-08-24 22:57:10.427910,1.795861005783081,-463.0,5.0,0.0
2026-08-24 22:57:10.435157,1.803107738494873,-502.0,4.0,0.0
2026-08-24 22:57:10.443994,1.8119449615478516,-487.0,2.0,0.0
2026-08-24 22:57:10.451735,1.8196861743927002,-506.0,3.0,0.0
2026-08-24 22:57:10.459407,1.8273584842681885,-527.0,2.0,0.0
2026-08-24 22:57:10.467052,1.835003137588501,-510.0,1.0,0.0
2026-08-24 22:57:10.475689,1.8436405658721924,-546.0,1.0,0.0
2026-08-24 22:57:10.483373,1.8513245582580566,-522.0,1.0,0.0
2026-08-24 22:57:10.492145,1.8600964546203613,-534.0,1.0,0.0
2026-08-24 22:57:10.499461,1.8674120903015137,-535.0,2.0,0.0
2026-08-24 22:57:10.507638,1.8755888938903809,-511.0,3.0,0.0
2026-08-24 22:57:10.515325,1.8832757472991943,-532.0,2.0,0.0
2026-08-24 22:57:10.523563,1.8915138244628906,-491.0,0.0,0.0
2026-08-24 22:57:10.531335,1.8992855548858643,-491.0,0.0,0.0
2026-08-24 22:57:10.539439,1.9073903560638428,-489.0,0.0,0.0
2026-08-24 22:57:10.547415,1.9153664112091064,-454.0,-1.0,0.0
2026-08-24 22:57:10.555446,1.9233975410461426,-473.0,-1.0,0.0
2026-08-24 22:57:10.563368,1.9313194751739502,-435.0,-1.0,0.0
2026-08-24 22:57:10.571199,1.9391496181488037,-444.0,0.0,0.0
2026-08-24 22:57:10.579351,1.9473016262054443,-446.0,2.0,0.0
2026-08-24 22:57:10.587644,1.955594539642334,-428.0,3.0,0.0
2026-08-24 22:57:10.595776,1.9637269973754883,-449.0,2.0,0.0
2026-08-24 22:57:10.603578,1.971529245376587,-419.0,1.0,0.0
2026-08-24 22:57:10.612100,1.980050802230835,-444.0,0.0,0.0
2026-08-24 22:57:10.619670,1.987621545791626,-448.0,0.0,0.0
2026-08-24 22:57:10.627303,1.9952542781829834,-422.0,1.0,0.0
2026-08-24 22:57:10.635825,2.0037763118743896,-451.0,0.0,0.0
2026-08-24 22:57:10.643637,2.0115883350372314,-422.0,0.0,0.0
2026-08-24 22:57:10.652812,2.0207631587982178,-440.0,1.0,0.0
2026-08-24 22:57:10.659924,2.0278749465942383,-435.0,2.0,0.0
2026-08-24 22:57:10.667936,2.0358877182006836,-421.0,1.0,0.0
2026-08-24 22:57:10.676688,2.0446388721466064,-451.0,1.0,0.0
2026-08-24 22:57:10.684794,2.0527453422546387,-418.0,1.0,0.0
2026-08-24 22:57:10.691941,2.0598926544189453,-441.0,1.0,0.0
2026-08-24 22:57:10.700381,2.0683319568634033,-443.0,0.0,0.0
2026-08-24 22:57:10.708424,2.0763750076293945,-429.0,1.0,0.0
2026-08-24 22:57:10.716015,2.0839664936065674,-452.0,1.0,0.0
2026-08-24 22:57:10.724691,2.092641830444336,-416.0,0.0,0.0
2026-08-24 22:57:10.732302,2.100252866744995,-437.0,0.0,0.0
2026-08-24 22:57:10.740679,2.108630418777466,-428.0,1.0,0.0
2026-08-24 22:57:10.748437,2.1163878440856934,-419.0,1.0,0.0
2026-08-24 22:57:10.755951,2.123901844024658,-447.0,-2.0,0.0
2026-08-24 22:57:10.764702,2.1326534748077393,-410.0,-4.0,0.0
2026-08-24 22:57:10.772342,2.1402933597564697,-437.0,-4.0,0.0
2026-08-24 22:57:10.780271,2.148221731185913,-434.0,-3.0,0.0
2026-08-24 22:57:10.788792,2.156742811203003,-423.0,-1.0,0.0
2026-08-24 22:57:10.796455,2.1644058227539062,-444.0,1.0,0.0
2026-08-24 22:57:10.804466,2.172417163848877,-411.0,2.0,0.0
2026-08-24 22:57:10.812154,2.180104970932007,-437.0,2.0,0.0
2026-08-24 22:57:10.820974,2.188925266265869,-428.0,3.0,0.0
2026-08-24 22:57:10.828777,2.196728229522705,-424.0,4.0,0.0
2026-08-24 22:57:10.836830,2.2047817707061768,-454.0,3.0,0.0
2026-08-24 22:57:10.844479,2.212430477142334,-424.0,2.0,0.0
2026-08-24 22:57:10.865285,2.233236312866211,-452.0,3.0,0.0
2026-08-24 22:57:10.882820,2.2507708072662354,-448.0,2.0,0.0
2026-08-24 22:57:10.883819,2.251770257949829,-435.0,-1.0,0.0
2026-08-24 22:57:10.883819,2.251770257949829,-449.0,-8.0,0.0
2026-08-24 22:57:10.886066,2.254016637802124,-410.0,-31.0,0.0
2026-08-24 22:57:10.892587,2.260538101196289,-428.0,-56.0,0.0
2026-08-24 22:57:10.900709,2.268660068511963,-412.0,-49.0,0.0
2026-08-24 22:57:10.908871,2.2768216133117676,-411.0,-13.0,0.0
2026-08-24 22:57:10.916080,2.2840309143066406,-434.0,13.0,0.0
2026-08-24 22:57:10.924870,2.2928214073181152,-399.0,13.0,0.0
2026-08-24 22:57:10.932504,2.3004555702209473,-426.0,5.0,0.0
2026-08-24 22:57:10.940629,2.308579921722412,-418.0,3.0,0.0
2026-08-24 22:57:10.948858,2.31680965423584,-411.0,1.0,0.0
2026-08-24 22:57:10.956873,2.324824333190918,-441.0,0.0,0.0
2026-08-24 22:57:10.964660,2.332610845565796,-455.0,0.0,0.0
2026-08-24 22:57:10.972178,2.3401291370391846,-572.0,0.0,0.0
2026-08-24 22:57:10.980322,2.348273515701294,-654.0,0.0,0.0
2026-08-24 22:57:10.988331,2.3562822341918945,-591.0,-1.0,0.0
2026-08-24 22:57:10.996739,2.3646903038024902,-470.0,-2.0,0.0
2026-08-24 22:57:11.004532,2.372483015060425,-358.0,-3.0,0.0
2026-08-24 22:57:11.012880,2.380830764770508,-398.0,-4.0,0.0
2026-08-24 22:57:11.020721,2.388671636581421,-408.0,-5.0,0.0
2026-08-24 22:57:11.028832,2.3967835903167725,-416.0,-6.0,0.0
2026-08-24 22:57:11.036342,2.4042932987213135,-431.0,-5.0,0.0
2026-08-24 22:57:11.045083,2.413034439086914,-405.0,-6.0,0.0
2026-08-24 22:57:11.053175,2.421125650405884,-432.0,-6.0,0.0
2026-08-24 22:57:11.060907,2.4288578033447266,-413.0,-6.0,0.0
2026-08-24 22:57:11.068426,2.4363768100738525,-424.0,-8.0,0.0
2026-08-24 22:57:11.076820,2.4447708129882812,-442.0,-10.0,0.0
2026-08-24 22:57:11.085341,2.4532923698425293,-415.0,-12.0,0.0
2026-08-24 22:57:11.092339,2.4602901935577393,-448.0,-14.0,0.0
2026-08-24 22:57:11.101107,2.46905779838562,-436.0,-17.0,0.0
2026-08-24 22:57:11.109718,2.4776694774627686,-443.0,-18.0,75.0
2026-08-24 22:57:11.116741,2.484692096710205,-455.0,-19.0,75.0
2026-08-24 22:57:11.125038,2.4929893016815186,-433.0,-20.0,75.0
2026-08-24 22:57:11.133464,2.501415252685547,-460.0,-19.0,75.0
2026-08-24 22:57:11.141664,2.509615421295166,-440.0,-18.0,75.0
2026-08-24 22:57:11.149197,2.5171477794647217,-458.0,-17.0,75.0
2026-08-24 22:57:11.157717,2.525668144226074,-476.0,-15.0,75.0
2026-08-24 22:57:11.165929,2.532855749130249,-456.0,-11.0,75.0
2026-08-24 22:57:11.172710,2.540661096572876,-498.0,-8.0,75.0
2026-08-24 22:57:11.181775,2.5497257709503174,-486.0,-5.0,75.0
2026-08-24 22:57:11.189402,2.5573527812957764,-503.0,-2.0,75.0
2026-08-24 22:57:11.196975,2.5649263858795166,-516.0,1.0,75.0
2026-08-24 22:57:11.204975,2.5729262828826904,-494.0,4.0,75.0
2026-08-24 22:57:11.212733,2.580683946609497,-522.0,5.0,75.0
2026-08-24 22:57:11.220592,2.5885426998138428,-494.0,5.0,75.0
2026-08-24 22:57:11.229104,2.597055435180664,-507.0,4.0,75.0
2026-08-24 22:57:11.240629,2.608579635620117,-509.0,6.0,75.0
2026-08-24 22:57:11.246629,2.614579916000366,-473.0,6.0,75.0
2026-08-24 22:57:11.267627,2.63557767868042,-494.0,4.0,75.0
2026-08-24 22:57:11.275422,2.643373727798462,-459.0,3.0,75.0
2026-08-24 22:57:11.277425,2.6453757286071777,-458.0,4.0,75.0
2026-08-24 22:57:11.278424,2.6463754177093506,-450.0,5.0,75.0
2026-08-24 22:57:11.284947,2.652897834777832,-422.0,4.0,75.0
2026-08-24 22:57:11.293360,2.661311626434326,-438.0,4.0,75.0
2026-08-24 22:57:11.301892,2.6698431968688965,-406.0,4.0,75.0
2026-08-24 22:57:11.308925,2.6768763065338135,-423.0,4.0,75.0
2026-08-24 22:57:11.317958,2.6859095096588135,-424.0,3.0,75.0
2026-08-24 22:57:11.325120,2.693070650100708,-407.0,4.0,75.0
2026-08-24 22:57:11.332761,2.700711727142334,-438.0,3.0,75.0
2026-08-24 22:57:11.341803,2.709754228591919,-414.0,1.0,75.0
2026-08-24 22:57:11.349873,2.7178239822387695,-431.0,1.0,75.0
2026-08-24 22:57:11.357090,2.725041389465332,-429.0,2.0,75.0
2026-08-24 22:57:11.365338,2.7332892417907715,-411.0,3.0,75.0
2026-08-24 22:57:11.373447,2.7413978576660156,-435.0,4.0,75.0
2026-08-24 22:57:11.381393,2.7493438720703125,-403.0,4.0,75.0
2026-08-24 22:57:11.389951,2.757901906967163,-426.0,3.0,75.0
2026-08-24 22:57:11.397582,2.765532970428467,-427.0,3.0,75.0
2026-08-24 22:57:11.405587,2.7735376358032227,-410.0,3.0,75.0
2026-08-24 22:57:11.414099,2.782050371170044,-442.0,3.0,75.0
2026-08-24 22:57:11.421460,2.7894110679626465,-415.0,1.0,75.0
2026-08-24 22:57:11.429117,2.797067880630493,-434.0,1.0,75.0
2026-08-24 22:57:11.437566,2.8055174350738525,-425.0,2.0,75.0
2026-08-24 22:57:11.445649,2.8136000633239746,-409.0,3.0,75.0
2026-08-24 22:57:11.453568,2.821519374847412,-431.0,3.0,75.0
2026-08-24 22:57:11.461151,2.8291022777557373,-398.0,2.0,75.0
2026-08-24 22:57:11.469681,2.837631940841675,-421.0,0.0,75.0
2026-08-24 22:57:11.477394,2.8453447818756104,-414.0,-1.0,75.0
2026-08-24 22:57:11.486371,2.8543224334716797,-403.0,-1.0,75.0
2026-08-24 22:57:11.493490,2.861441135406494,-434.0,-2.0,75.0
2026-08-24 22:57:11.501113,2.8690643310546875,-405.0,-3.0,75.0
2026-08-24 22:57:11.509740,2.8776912689208984,-426.0,-2.0,75.0
2026-08-24 22:57:11.517826,2.885777473449707,-417.0,0.0,75.0
2026-08-24 22:57:11.525076,2.8930273056030273,-405.0,2.0,75.0
2026-08-24 22:57:11.533599,2.9015495777130127,-430.0,4.0,75.0
2026-08-24 22:57:11.541107,2.9090583324432373,-398.0,5.0,75.0
2026-08-24 22:57:11.549647,2.917597770690918,-426.0,4.0,75.0
2026-08-24 22:57:11.557516,2.925467014312744,-425.0,3.0,75.0
2026-08-24 22:57:11.565725,2.9336764812469482,-418.0,4.0,75.0
2026-08-24 22:57:11.573572,2.9415230751037598,-448.0,4.0,75.0
2026-08-24 22:57:11.581783,2.9497339725494385,-419.0,3.0,75.0
2026-08-24 22:57:11.589625,2.957576274871826,-434.0,2.0,75.0
2026-08-24 22:57:11.597568,2.9655189514160156,-417.0,0.0,75.0
2026-08-24 22:57:11.605992,2.9739437103271484,-404.0,-10.0,75.0
2026-08-24 22:57:11.613804,2.981754779815674,-418.0,-34.0,75.0
2026-08-24 22:57:11.621775,2.9897265434265137,-385.0,-55.0,75.0
2026-08-24 22:57:11.629721,2.9976718425750732,-410.0,-42.0,75.0
2026-08-24 22:57:11.637581,3.0055322647094727,-400.0,-5.0,75.0
2026-08-24 22:57:11.645892,3.013843536376953,-394.0,16.0,75.0
2026-08-24 22:57:11.653709,3.021660327911377,-418.0,12.0,75.0
2026-08-24 22:57:11.661921,3.029871940612793,-388.0,5.0,75.0
2026-08-24 22:57:11.670106,3.038057327270508,-412.0,4.0,75.0
2026-08-24 22:57:11.677632,3.045583724975586,-427.0,3.0,75.0
2026-08-24 22:57:11.686090,3.0540409088134766,-484.0,2.0,75.0
2026-08-24 22:57:11.693828,3.061779499053955,-619.0,3.0,75.0
2026-08-24 22:57:11.701817,3.0697684288024902,-621.0,3.0,75.0
2026-08-24 22:57:11.709166,3.0771172046661377,-526.0,0.0,75.0
2026-08-24 22:57:11.717875,3.0858263969421387,-380.0,0.0,75.0
2026-08-24 22:57:11.725446,3.0933969020843506,-360.0,-1.0,75.0
2026-08-24 22:57:11.734048,3.101999282836914,-411.0,-2.0,75.0
2026-08-24 22:57:11.741626,3.10957670211792,-392.0,-3.0,75.0
2026-08-24 22:57:11.749631,3.117581844329834,-420.0,-4.0,75.0
2026-08-24 22:57:11.756639,3.1245906352996826,-404.0,-4.0,75.0
2026-08-24 22:57:11.765853,3.1338038444519043,-406.0,-4.0,75.0
2026-08-24 22:57:11.773366,3.1413168907165527,-424.0,-4.0,75.0
2026-08-24 22:57:11.781704,3.1496548652648926,-394.0,-5.0,75.0
2026-08-24 22:57:11.790221,3.158172130584717,-426.0,-7.0,75.0
2026-08-24 22:57:11.798053,3.1660044193267822,-409.0,-8.0,75.0
2026-08-24 22:57:11.806248,3.174198865890503,-417.0,-9.0,75.0
2026-08-24 22:57:11.814272,3.182222843170166,-444.0,-12.0,75.0
2026-08-24 22:57:11.822399,3.19035005569458,-415.0,-15.0,75.0
2026-08-24 22:57:11.830568,3.198519229888916,-445.0,-17.0,75.0
2026-08-24 22:57:11.838578,3.206529140472412,-426.0,-17.0,75.0
2026-08-24 22:57:11.846112,3.2140629291534424,-434.0,-17.0,75.0
2026-08-24 22:57:11.854219,3.222169876098633,-452.0,-17.0,75.0
2026-08-24 22:57:11.861971,3.22992205619812,-425.0,-16.0,75.0
2026-08-24 22:57:11.870228,3.2381794452667236,-461.0,-16.0,75.0
2026-08-24 22:57:11.878744,3.2466952800750732,-445.0,-14.0,75.0
2026-08-24 22:57:11.886767,3.254718542098999,-462.0,-11.0,75.0
2026-08-24 22:57:11.894082,3.262033462524414,-490.0,-9.0,75.0
2026-08-24 22:57:11.901598,3.2695488929748535,-472.0,-6.0,75.0
2026-08-24 22:57:11.910910,3.2788610458374023,-505.0,-2.0,75.0
2026-08-24 22:57:11.918723,3.2866744995117188,-487.0,1.0,75.0
2026-08-24 22:57:11.926713,3.294663906097412,-498.0,3.0,75.0
2026-08-24 22:57:11.934520,3.3024706840515137,-508.0,6.0,75.0
2026-08-24 22:57:11.942529,3.3104803562164307,-480.0,7.0,75.0
2026-08-24 22:57:11.950715,3.3186659812927246,-505.0,6.0,75.0
2026-08-24 22:57:11.958593,3.3265445232391357,-472.0,6.0,75.0
2026-08-24 22:57:11.966885,3.334836483001709,-473.0,5.0,75.0
2026-08-24 22:57:11.974407,3.342358350753784,-475.0,4.0,75.0
2026-08-24 22:57:11.982432,3.3503830432891846,-438.0,3.0,75.0
2026-08-24 22:57:11.990707,3.3586578369140625,-452.0,4.0,75.0
2026-08-24 22:57:11.997970,3.3659205436706543,-415.0,4.0,75.0
2026-08-24 22:57:12.005989,3.3739404678344727,-421.0,3.0,75.0
2026-08-24 22:57:12.014150,3.382100820541382,-421.0,4.0,75.0
2026-08-24 22:57:12.022533,3.390484094619751,-390.0,5.0,75.0
2026-08-24 22:57:12.030774,3.3987247943878174,-422.0,4.0,75.0
2026-08-24 22:57:12.038293,3.4062442779541016,-393.0,2.0,75.0
2026-08-24 22:57:12.046955,3.4149065017700195,-410.0,2.0,75.0
2026-08-24 22:57:12.054498,3.4224488735198975,-424.0,2.0,75.0
2026-08-24 22:57:12.062555,3.430506467819214,-401.0,1.0,75.0
2026-08-24 22:57:12.070707,3.438657760620117,-427.0,1.0,75.0
2026-08-24 22:57:12.078569,3.4465200901031494,-395.0,2.0,75.0
2026-08-24 22:57:12.086408,3.4543585777282715,-414.0,2.0,75.0
2026-08-24 22:57:12.095057,3.4630086421966553,-415.0,4.0,75.0
2026-08-24 22:57:12.103306,3.471256732940674,-392.0,4.0,75.0
2026-08-24 22:57:12.110664,3.4786152839660645,-425.0,3.0,75.0
2026-08-24 22:57:12.118697,3.486647844314575,-394.0,3.0,75.0
2026-08-24 22:57:12.126905,3.494856595993042,-415.0,3.0,75.0
2026-08-24 22:57:12.134436,3.502387285232544,-422.0,1.0,75.0
2026-08-24 22:57:12.142801,3.5107522010803223,-402.0,1.0,75.0
2026-08-24 22:57:12.150920,3.518871307373047,-427.0,2.0,75.0
2026-08-24 22:57:12.158551,3.5265023708343506,-392.0,2.0,75.0
2026-08-24 22:57:12.166749,3.5346996784210205,-411.0,2.0,75.0
2026-08-24 22:57:12.174672,3.5426230430603027,-408.0,2.0,75.0
2026-08-24 22:57:12.183087,3.5510382652282715,-387.0,1.0,75.0
2026-08-24 22:57:12.191099,3.5590505599975586,-417.0,1.0,75.0
2026-08-24 22:57:12.198309,3.5662600994110107,-385.0,0.0,75.0
2026-08-24 22:57:12.206650,3.5746009349823,-407.0,-2.0,75.0
2026-08-24 22:57:12.214456,3.5824074745178223,-413.0,-3.0,75.0
2026-08-24 22:57:12.222633,3.5905840396881104,-396.0,-3.0,75.0
2026-08-24 22:57:12.230227,3.5981783866882324,-421.0,-1.0,75.0
2026-08-24 22:57:12.238188,3.6061394214630127,-389.0,1.0,75.0
2026-08-24 22:57:12.246996,3.6149473190307617,-415.0,3.0,75.0
2026-08-24 22:57:12.253857,3.6218085289001465,-415.0,4.0,75.0
2026-08-24 22:57:12.262299,3.6302499771118164,-402.0,4.0,75.0
2026-08-24 22:57:12.270868,3.6388187408447266,-430.0,5.0,75.0
2026-08-24 22:57:12.279015,3.646965742111206,-401.0,4.0,75.0
2026-08-24 22:57:12.286545,3.654496192932129,-416.0,3.0,75.0
2026-08-24 22:57:12.294342,3.6622936725616455,-409.0,3.0,75.0
2026-08-24 22:57:12.302480,3.670431137084961,-392.0,3.0,75.0
2026-08-24 22:57:12.311249,3.6792001724243164,-411.0,2.0,75.0
2026-08-24 22:57:12.318759,3.6867101192474365,-378.0,-2.0,75.0
2026-08-24 22:57:12.326442,3.6943936347961426,-401.0,-20.0,75.0
2026-08-24 22:57:12.334551,3.7025017738342285,-390.0,-48.0,75.0
2026-08-24 22:57:12.342845,3.7107958793640137,-378.0,-54.0,75.0
2026-08-24 22:57:12.351450,3.7194013595581055,-405.0,-24.0,75.0
2026-08-24 22:57:12.358995,3.726945638656616,-371.0,8.0,75.0
2026-08-24 22:57:12.367404,3.7353551387786865,-402.0,14.0,75.0
2026-08-24 22:57:12.374578,3.7425291538238525,-429.0,5.0,75.0
2026-08-24 22:57:12.382697,3.7506484985351562,-485.0,2.0,75.0
2026-08-24 22:57:12.390219,3.7581701278686523,-627.0,3.0,75.0
2026-08-24 22:57:12.398645,3.766596555709839,-602.0,2.0,75.0
2026-08-24 22:57:12.407049,3.7750003337860107,-497.0,1.0,75.0
2026-08-24 22:57:12.414774,3.7827248573303223,-364.0,1.0,75.0
2026-08-24 22:57:12.422683,3.7906341552734375,-349.0,1.0,75.0
2026-08-24 22:57:12.430714,3.7986652851104736,-398.0,1.0,75.0
2026-08-24 22:57:12.438746,3.806697368621826,-378.0,1.0,75.0
2026-08-24 22:57:12.447459,3.8154103755950928,-409.0,-2.0,75.0
2026-08-24 22:57:12.455475,3.823425769805908,-401.0,-4.0,75.0
2026-08-24 22:57:12.463109,3.8310604095458984,-397.0,-4.0,75.0
2026-08-24 22:57:12.471327,3.839277744293213,-420.0,-4.0,75.0
2026-08-24 22:57:12.479508,3.847458600997925,-385.0,-4.0,75.0
2026-08-24 22:57:12.487699,3.8556504249572754,-418.0,-5.0,75.0
2026-08-24 22:57:12.495603,3.8635542392730713,-401.0,-5.0,75.0
2026-08-24 22:57:12.503121,3.871072292327881,-400.0,-6.0,75.0
2026-08-24 22:57:12.511389,3.8793399333953857,-427.0,-7.0,75.0
2026-08-24 22:57:12.519100,3.8870508670806885,-401.0,-8.0,75.0
2026-08-24 22:57:12.527164,3.8951151371002197,-433.0,-11.0,75.0
2026-08-24 22:57:12.535150,3.9031007289886475,-424.0,-15.0,75.0
2026-08-24 22:57:12.543259,3.911210298538208,-424.0,-16.0,75.0
2026-08-24 22:57:12.551790,3.919741630554199,-445.0,-17.0,75.0
2026-08-24 22:57:12.559993,3.9279441833496094,-418.0,-18.0,75.0
2026-08-24 22:57:12.567971,3.9359219074249268,-453.0,-18.0,75.0
2026-08-24 22:57:12.575483,3.943434476852417,-439.0,-18.0,75.0
2026-08-24 22:57:12.583526,3.95147705078125,-448.0,-17.0,75.0
2026-08-24 22:57:12.591694,3.9596447944641113,-475.0,-16.0,75.0
2026-08-24 22:57:12.599299,3.967250108718872,-458.0,-13.0,75.0
2026-08-24 22:57:12.607622,3.9755730628967285,-495.0,-10.0,75.0
2026-08-24 22:57:12.615139,3.9830899238586426,-483.0,-8.0,75.0
2026-08-24 22:57:12.623833,3.9917845726013184,-488.0,-5.0,75.0
2026-08-24 22:57:12.631508,3.9994587898254395,-503.0,-1.0,75.0
2026-08-24 22:57:12.639199,4.007150411605835,-469.0,2.0,75.0
2026-08-24 22:57:12.647858,4.0158092975616455,-494.0,3.0,75.0
2026-08-24 22:57:12.655937,4.023887634277344,-458.0,5.0,75.0
2026-08-24 22:57:12.663314,4.031264781951904,-452.0,6.0,75.0
2026-08-24 22:57:12.671329,4.0392796993255615,-456.0,7.0,75.0
2026-08-24 22:57:12.679668,4.047619342803955,-417.0,6.0,75.0
2026-08-24 22:57:12.687422,4.055372953414917,-438.0,5.0,75.0
2026-08-24 22:57:12.695912,4.063863754272461,-408.0,3.0,75.0
2026-08-24 22:57:12.703949,4.071899890899658,-406.0,2.0,75.0
2026-08-24 22:57:12.711825,4.079776287078857,-413.0,4.0,75.0
2026-08-24 22:57:12.719298,4.087249517440796,-379.0,4.0,75.0
2026-08-24 22:57:12.727292,4.095242977142334,-410.0,3.0,75.0
2026-08-24 22:57:12.735507,4.103457927703857,-380.0,3.0,75.0
2026-08-24 22:57:12.743201,4.111152410507202,-391.0,4.0,75.0
2026-08-24 22:57:12.751725,4.119675874710083,-406.0,3.0,75.0
2026-08-24 22:57:12.759863,4.127814054489136,-383.0,3.0,75.0
2026-08-24 22:57:12.767876,4.13582706451416,-417.0,3.0,75.0
2026-08-24 22:57:12.775168,4.1431190967559814,-392.0,1.0,75.0
2026-08-24 22:57:12.783773,4.151723861694336,-401.0,1.0,75.0
2026-08-24 22:57:12.791929,4.1598801612854,-411.0,2.0,75.0
2026-08-24 22:57:12.800026,4.167977333068848,-383.0,3.0,75.0
2026-08-24 22:57:12.806697,4.17464804649353,-413.0,3.0,75.0
2026-08-24 22:57:12.815763,4.183714389801025,-382.0,4.0,75.0
2026-08-24 22:57:12.823769,4.191720485687256,-394.0,4.0,75.0
2026-08-24 22:57:12.831896,4.199847221374512,-406.0,4.0,75.0
2026-08-24 22:57:12.839110,4.207061290740967,-385.0,4.0,75.0
2026-08-24 22:57:12.848225,4.2161760330200195,-415.0,3.0,75.0
2026-08-24 22:57:12.855411,4.223361968994141,-389.0,0.0,75.0
2026-08-24 22:57:12.863708,4.231659173965454,-399.0,0.0,75.0
2026-08-24 22:57:12.871869,4.23982048034668,-404.0,2.0,75.0
2026-08-24 22:57:12.880167,4.248118162155151,-380.0,2.0,75.0
2026-08-24 22:57:12.887495,4.255445957183838,-406.0,0.0,75.0
2026-08-24 22:57:12.895338,4.263288974761963,-375.0,0.0,75.0
2026-08-24 22:57:12.904066,4.272016763687134,-389.0,-1.0,75.0
2026-08-24 22:57:12.911408,4.279359340667725,-397.0,-1.0,75.0
2026-08-24 22:57:12.919654,4.287604808807373,-380.0,0.0,75.0
2026-08-24 22:57:12.927739,4.295690536499023,-408.0,0.0,75.0
2026-08-24 22:57:12.936030,4.303980827331543,-383.0,1.0,75.0
2026-08-24 22:57:12.943356,4.311307191848755,-397.0,2.0,75.0
2026-08-24 22:57:12.952252,4.320202589035034,-403.0,3.0,75.0
2026-08-24 22:57:12.959782,4.327733516693115,-384.0,3.0,75.0
2026-08-24 22:57:12.968306,4.336257696151733,-417.0,4.0,75.0
2026-08-24 22:57:12.975475,4.34342622756958,-386.0,4.0,75.0
2026-08-24 22:57:12.984145,4.35209584236145,-406.0,4.0,75.0
2026-08-24 22:57:12.991790,4.359740972518921,-409.0,4.0,75.0
2026-08-24 22:57:13.000313,4.3682637214660645,-387.0,4.0,75.0
2026-08-24 22:57:13.007519,4.3754706382751465,-413.0,2.0,75.0
2026-08-24 22:57:13.015199,4.383150339126587,-377.0,-5.0,75.0
2026-08-24 22:57:13.024797,4.392748594284058,-388.0,-24.0,75.0
2026-08-24 22:57:13.032678,4.4006288051605225,-389.0,-51.0,75.0
2026-08-24 22:57:13.040823,4.408774375915527,-372.0,-53.0,75.0
2026-08-24 22:57:13.048338,4.416289329528809,-395.0,-20.0,75.0
2026-08-24 22:57:13.055407,4.423357725143433,-361.0,11.0,75.0
2026-08-24 22:57:13.064486,4.4324376583099365,-382.0,14.0,75.0
2026-08-24 22:57:13.071478,4.439428806304932,-378.0,5.0,75.0
2026-08-24 22:57:13.079999,4.447949647903442,-372.0,3.0,75.0
2026-08-24 22:57:13.088168,4.456119537353516,-434.0,2.0,75.0
2026-08-24 22:57:13.095827,4.463778018951416,-476.0,0.0,75.0
2026-08-24 22:57:13.104301,4.472252130508423,-616.0,0.0,75.0
2026-08-24 22:57:13.112627,4.480577707290649,-604.0,0.0,75.0
2026-08-24 22:57:13.120164,4.488115310668945,-456.0,-1.0,75.0
2026-08-24 22:57:13.128691,4.496642112731934,-369.0,0.0,75.0
2026-08-24 22:57:13.137039,4.504989862442017,-332.0,0.0,75.0
2026-08-24 22:57:13.144090,4.512040853500366,-378.0,-2.0,75.0
2026-08-24 22:57:13.152616,4.520567178726196,-383.0,-3.0,75.0
2026-08-24 22:57:13.160904,4.528855323791504,-380.0,-3.0,75.0
2026-08-24 22:57:13.168913,4.536864519119263,-409.0,-5.0,75.0
2026-08-24 22:57:13.176340,4.544291019439697,-379.0,-6.0,75.0
2026-08-24 22:57:13.184929,4.552880048751831,-402.0,-6.0,75.0
2026-08-24 22:57:13.192276,4.560227632522583,-398.0,-6.0,75.0
2026-08-24 22:57:13.200447,4.568397760391235,-392.0,-7.0,75.0
2026-08-24 22:57:13.208389,4.576339960098267,-414.0,-8.0,75.0
2026-08-24 22:57:13.216041,4.5839927196502686,-383.0,-9.0,75.0
2026-08-24 22:57:13.224363,4.59231424331665,-413.0,-11.0,75.0
2026-08-24 22:57:13.232222,4.600172996520996,-405.0,-13.0,75.0
2026-08-24 22:57:13.240756,4.608707427978516,-404.0,-15.0,75.0
2026-08-24 22:57:13.248851,4.61680269241333,-432.0,-17.0,75.0
2026-08-24 22:57:13.256845,4.624796390533447,-407.0,-19.0,75.0
2026-08-24 22:57:13.264914,4.632864952087402,-436.0,-19.0,75.0
2026-08-24 22:57:13.272641,4.640591859817505,-426.0,-19.0,75.0
2026-08-24 22:57:13.280189,4.648139953613281,-430.0,-18.0,75.0
2026-08-24 22:57:13.288393,4.656343698501587,-452.0,-15.0,75.0
2026-08-24 22:57:13.296579,4.664530038833618,-427.0,-12.0,75.0
2026-08-24 22:57:13.304695,4.672645807266235,-468.0,-9.0,75.0
2026-08-24 22:57:13.313052,4.681002855300903,-460.0,-6.0,75.0
2026-08-24 22:57:13.320189,4.688140392303467,-468.0,-3.0,75.0
2026-08-24 22:57:13.328702,4.696653366088867,-497.0,0.0,75.0
2026-08-24 22:57:13.336945,4.704895973205566,-470.0,1.0,75.0
2026-08-24 22:57:13.344506,4.7124574184417725,-497.0,3.0,75.0
2026-08-24 22:57:13.353027,4.720977783203125,-476.0,5.0,75.0
2026-08-24 22:57:13.360567,4.728517770767212,-472.0,5.0,75.0
2026-08-24 22:57:13.368184,4.736134767532349,-474.0,6.0,75.0
2026-08-24 22:57:13.375913,4.743863582611084,-431.0,7.0,75.0
2026-08-24 22:57:13.384686,4.752636671066284,-448.0,7.0,75.0
2026-08-24 22:57:13.392898,4.760849475860596,-417.0,5.0,75.0
2026-08-24 22:57:13.401413,4.769364356994629,-409.0,3.0,75.0
2026-08-24 22:57:13.408761,4.77671217918396,-420.0,3.0,75.0
2026-08-24 22:57:13.416313,4.784264326095581,-388.0,3.0,75.0
2026-08-24 22:57:13.424438,4.792388916015625,-410.0,3.0,75.0
2026-08-24 22:57:13.432309,4.800260543823242,-386.0,3.0,75.0
2026-08-24 22:57:13.440688,4.808639287948608,-391.0,3.0,75.0
2026-08-24 22:57:13.448625,4.8165764808654785,-400.0,3.0,75.0
2026-08-24 22:57:13.456468,4.824418783187866,-370.0,4.0,75.0
2026-08-24 22:57:13.465382,4.833333253860474,-403.0,4.0,75.0
2026-08-24 22:57:13.472531,4.840482473373413,-384.0,2.0,75.0
2026-08-24 22:57:13.480471,4.848422288894653,-391.0,2.0,75.0
2026-08-24 22:57:13.488168,4.856119632720947,-409.0,2.0,75.0
2026-08-24 22:57:13.496171,4.864121913909912,-385.0,1.0,75.0
2026-08-24 22:57:13.505507,4.873457908630371,-410.0,2.0,75.0
2026-08-24 22:57:13.513160,4.8811116218566895,-388.0,2.0,75.0
2026-08-24 22:57:13.519968,4.887919187545776,-397.0,2.0,75.0
2026-08-24 22:57:13.529099,4.897050380706787,-401.0,3.0,75.0
2026-08-24 22:57:13.537140,4.905090808868408,-376.0,4.0,75.0
2026-08-24 22:57:13.545042,4.912993669509888,-406.0,4.0,75.0
2026-08-24 22:57:13.552552,4.9205029010772705,-383.0,2.0,75.0
2026-08-24 22:57:13.560549,4.928500652313232,-389.0,1.0,75.0
2026-08-24 22:57:13.569076,4.9370269775390625,-397.0,1.0,75.0
2026-08-24 22:57:13.576216,4.944166898727417,-381.0,2.0,75.0
2026-08-24 22:57:13.585141,4.953091621398926,-404.0,2.0,75.0
2026-08-24 22:57:13.592800,4.960751295089722,-380.0,0.0,75.0
2026-08-24 22:57:13.600293,4.968244552612305,-390.0,0.0,75.0
2026-08-24 22:57:13.608981,4.9769322872161865,-391.0,0.0,75.0
2026-08-24 22:57:13.616725,4.984675884246826,-370.0,0.0,75.0
2026-08-24 22:57:13.624478,4.992429256439209,-400.0,-1.0,75.0
2026-08-24 22:57:13.633011,5.000962495803833,-375.0,-1.0,75.0
2026-08-24 22:57:13.640749,5.008699655532837,-388.0,0.0,75.0
2026-08-24 22:57:13.648473,5.0164244174957275,-393.0,1.0,75.0
2026-08-24 22:57:13.656382,5.024333238601685,-375.0,3.0,75.0
2026-08-24 22:57:13.664714,5.032664775848389,-397.0,3.0,75.0
2026-08-24 22:57:13.673134,5.041085481643677,-371.0,3.0,75.0
2026-08-24 22:57:13.681373,5.049323797225952,-383.0,4.0,75.0
2026-08-24 22:57:13.688376,5.0563271045684814,-377.0,4.0,75.0
2026-08-24 22:57:13.696992,5.064943075180054,-360.0,5.0,75.0
2026-08-24 22:57:13.704812,5.072763442993164,-394.0,5.0,75.0
2026-08-24 22:57:13.712802,5.0807530879974365,-366.0,4.0,75.0
2026-08-24 22:57:13.720661,5.088611602783203,-383.0,1.0,75.0
2026-08-24 22:57:13.729679,5.097630500793457,-386.0,-5.0,75.0
2026-08-24 22:57:13.737796,5.105747222900391,-374.0,-27.0,75.0
2026-08-24 22:57:13.745746,5.113696575164795,-397.0,-53.0,75.0
2026-08-24 22:57:13.753700,5.1216511726379395,-368.0,-52.0,75.0
2026-08-24 22:57:13.761684,5.129634857177734,-387.0,-18.0,75.0
2026-08-24 22:57:13.769595,5.137546062469482,-378.0,11.0,75.0
2026-08-24 22:57:13.777835,5.14578652381897,-384.0,13.0,75.0
2026-08-24 22:57:13.785454,5.15340518951416,-463.0,6.0,75.0
2026-08-24 22:57:13.793454,5.161404848098755,-529.0,3.0,75.0
2026-08-24 22:57:13.801095,5.169045925140381,-640.0,1.0,75.0
2026-08-24 22:57:13.809688,5.177639007568359,-563.0,-1.0,75.0
2026-08-24 22:57:13.817256,5.185206890106201,-416.0,0.0,75.0
2026-08-24 22:57:13.825579,5.1935296058654785,-362.0,0.0,75.0
2026-08-24 22:57:13.833105,5.2010557651519775,-349.0,-2.0,75.0
2026-08-24 22:57:13.841998,5.209948778152466,-390.0,-2.0,75.0
2026-08-24 22:57:13.849518,5.217468976974487,-385.0,-1.0,75.0
2026-08-24 22:57:13.857311,5.225262403488159,-380.0,-2.0,75.0
2026-08-24 22:57:13.865328,5.233279228210449,-408.0,-2.0,75.0
2026-08-24 22:57:13.873153,5.241103887557983,-381.0,-3.0,75.0
2026-08-24 22:57:13.881451,5.249401569366455,-407.0,-4.0,75.0
2026-08-24 22:57:13.889277,5.25722861289978,-402.0,-5.0,75.0
2026-08-24 22:57:13.897942,5.265892744064331,-401.0,-6.0,75.0
2026-08-24 22:57:13.905053,5.273003578186035,-422.0,-7.0,75.0
2026-08-24 22:57:13.913365,5.28131628036499,-394.0,-8.0,75.0
2026-08-24 22:57:13.921294,5.289245367050171,-420.0,-8.0,75.0
2026-08-24 22:57:13.930072,5.298022985458374,-406.0,-9.0,75.0
2026-08-24 22:57:13.937679,5.3056299686431885,-406.0,-11.0,75.0
2026-08-24 22:57:13.945417,5.313368558883667,-435.0,-13.0,75.0
2026-08-24 22:57:13.953507,5.321457862854004,-408.0,-15.0,75.0
2026-08-24 22:57:13.962158,5.330108642578125,-440.0,-17.0,75.0
2026-08-24 22:57:13.969705,5.337655544281006,-431.0,-19.0,75.0
2026-08-24 22:57:13.977744,5.3456947803497314,-439.0,-20.0,75.0
2026-08-24 22:57:13.985283,5.353234529495239,-464.0,-19.0,75.0
2026-08-24 22:57:13.993514,5.361464738845825,-441.0,-18.0,75.0
2026-08-24 22:57:14.001656,5.3696067333221436,-475.0,-16.0,75.0
2026-08-24 22:57:14.008987,5.376938581466675,-460.0,-13.0,75.0
2026-08-24 22:57:14.017204,5.385154962539673,-469.0,-8.0,75.0
2026-08-24 22:57:14.025253,5.393203973770142,-494.0,-5.0,75.0
2026-08-24 22:57:14.033648,5.401599645614624,-467.0,-2.0,75.0
2026-08-24 22:57:14.041875,5.409826278686523,-493.0,1.0,75.0
2026-08-24 22:57:14.049394,5.417344808578491,-473.0,2.0,75.0
2026-08-24 22:57:14.078432,5.446382761001587,-471.0,2.0,75.0
2026-08-24 22:57:14.078432,5.446382761001587,-473.0,4.0,75.0
2026-08-24 22:57:14.086430,5.454381465911865,-432.0,5.0,75.0
2026-08-24 22:57:14.089507,5.45745849609375,-445.0,4.0,75.0
2026-08-24 22:57:14.095914,5.463864803314209,-410.0,5.0,75.0
2026-08-24 22:57:14.097929,5.465879917144775,-407.0,6.0,75.0
2026-08-24 22:57:14.105974,5.47392463684082,-419.0,5.0,75.0
2026-08-24 22:57:14.114015,5.481966495513916,-385.0,4.0,75.0
2026-08-24 22:57:14.121723,5.489673852920532,-409.0,3.0,75.0
2026-08-24 22:57:14.129725,5.497676134109497,-389.0,1.0,75.0
2026-08-24 22:57:14.137260,5.505211114883423,-397.0,1.0,75.0
2026-08-24 22:57:14.145849,5.513800382614136,-409.0,3.0,75.0
2026-08-24 22:57:14.153895,5.521846532821655,-383.0,2.0,75.0
2026-08-24 22:57:14.162406,5.5303566455841064,-409.0,1.0,75.0
2026-08-24 22:57:14.169915,5.53786563873291,-385.0,3.0,75.0
2026-08-24 22:57:14.178427,5.546377897262573,-396.0,3.0,75.0
2026-08-24 22:57:14.185665,5.553616285324097,-410.0,2.0,75.0
2026-08-24 22:57:14.194175,5.562126398086548,-387.0,2.0,75.0
2026-08-24 22:57:14.201945,5.569896221160889,-414.0,4.0,75.0
2026-08-24 22:57:14.210066,5.578016519546509,-395.0,2.0,75.0
2026-08-24 22:57:14.217971,5.5859222412109375,-406.0,1.0,75.0
2026-08-24 22:57:14.226110,5.5940611362457275,-410.0,2.0,75.0
2026-08-24 22:57:14.233523,5.601473808288574,-389.0,2.0,75.0
2026-08-24 22:57:14.241721,5.609672546386719,-413.0,3.0,75.0
2026-08-24 22:57:14.249813,5.617764234542847,-386.0,4.0,75.0
2026-08-24 22:57:14.258225,5.626176357269287,-398.0,3.0,75.0
2026-08-24 22:57:14.265238,5.63318943977356,-406.0,2.0,75.0
2026-08-24 22:57:14.273989,5.641940116882324,-384.0,3.0,75.0
2026-08-24 22:57:14.281505,5.649456024169922,-412.0,3.0,75.0
2026-08-24 22:57:14.289737,5.657688617706299,-388.0,2.0,75.0
2026-08-24 22:57:14.298321,5.666271924972534,-402.0,2.0,75.0
2026-08-24 22:57:14.305610,5.673561334609985,-404.0,2.0,75.0
2026-08-24 22:57:14.313639,5.68159031867981,-383.0,2.0,75.0
2026-08-24 22:57:14.321574,5.689525604248047,-406.0,4.0,75.0
2026-08-24 22:57:14.329534,5.6974852085113525,-378.0,5.0,75.0
2026-08-24 22:57:14.338181,5.706132650375366,-394.0,4.0,75.0
2026-08-24 22:57:14.346462,5.7144129276275635,-399.0,3.0,75.0
2026-08-24 22:57:14.353286,5.721237659454346,-381.0,3.0,75.0
2026-08-24 22:57:14.362771,5.730721712112427,-410.0,3.0,75.0
2026-08-24 22:57:14.369444,5.737395286560059,-384.0,1.0,75.0
2026-08-24 22:57:14.378667,5.746618032455444,-401.0,1.0,75.0
2026-08-24 22:57:14.386440,5.754391431808472,-397.0,1.0,75.0
2026-08-24 22:57:14.394956,5.762907028198242,-381.0,1.0,75.0
2026-08-24 22:57:14.402179,5.770130634307861,-407.0,2.0,75.0
2026-08-24 22:57:14.417579,5.785529613494873,-373.0,1.0,75.0
2026-08-24 22:57:14.419365,5.787315845489502,-395.0,-2.0,75.0
2026-08-24 22:57:14.426375,5.794326066970825,-397.0,-15.0,75.0
2026-08-24 22:57:14.434904,5.802854776382446,-381.0,-42.0,75.0
2026-08-24 22:57:14.443835,5.81178617477417,-410.0,-60.0,75.0
2026-08-24 22:57:14.450363,5.81831431388855,-386.0,-44.0,75.0
2026-08-24 22:57:14.459204,5.827155590057373,-407.0,-8.0,75.0
2026-08-24 22:57:14.466617,5.83456826210022,-403.0,11.0,75.0
2026-08-24 22:57:14.474291,5.842242479324341,-395.0,7.0,75.0
2026-08-24 22:57:14.482825,5.850776433944702,-419.0,1.0,75.0
2026-08-24 22:57:14.490984,5.8589348793029785,-389.0,1.0,75.0
2026-08-24 22:57:14.498752,5.866703033447266,-414.0,-1.0,75.0
2026-08-24 22:57:14.506965,5.874916076660156,-406.0,-2.0,75.0
2026-08-24 22:57:14.514779,5.882729530334473,-391.0,-2.0,75.0
2026-08-24 22:57:14.522960,5.890910863876343,-411.0,-3.0,75.0
2026-08-24 22:57:14.530577,5.898528099060059,-382.0,-4.0,75.0
2026-08-24 22:57:14.539127,5.907077789306641,-402.0,-5.0,75.0
2026-08-24 22:57:14.546323,5.9142746925354,-388.0,-5.0,75.0
2026-08-24 22:57:14.555157,5.923108339309692,-379.0,-5.0,75.0
2026-08-24 22:57:14.563182,5.931133270263672,-400.0,-4.0,75.0
2026-08-24 22:57:14.570761,5.938711881637573,-366.0,-4.0,75.0
2026-08-24 22:57:14.578960,5.946911096572876,-391.0,-5.0,75.0
2026-08-24 22:57:14.587281,5.9552321434021,-383.0,-7.0,75.0
2026-08-24 22:57:14.595473,5.9634246826171875,-402.0,-8.0,75.0
2026-08-24 22:57:14.602486,5.970437288284302,-487.0,-8.0,75.0
2026-08-24 22:57:14.610518,5.978469371795654,-573.0,-10.0,75.0
2026-08-24 22:57:14.618540,5.9864912033081055,-647.0,-12.0,75.0
2026-08-24 22:57:14.627076,5.9950268268585205,-518.0,-13.0,75.0
2026-08-24 22:57:14.634596,6.0025475025177,-378.0,-15.0,75.0
2026-08-24 22:57:14.643121,6.011071681976318,-367.0,-15.0,75.0
2026-08-24 22:57:14.650722,6.018672943115234,-357.0,-16.0,75.0
2026-08-24 22:57:14.659268,6.02721905708313,-398.0,-18.0,85.0
2026-08-24 22:57:14.667027,6.03497838973999,-390.0,-19.0,85.0
2026-08-24 22:57:14.674568,6.0425190925598145,-389.0,-19.0,85.0
2026-08-24 22:57:14.682082,6.050033092498779,-414.0,-18.0,85.0
2026-08-24 22:57:14.691076,6.059026718139648,-389.0,-18.0,85.0
2026-08-24 22:57:14.699002,6.066953659057617,-417.0,-17.0,85.0
2026-08-24 22:57:14.706492,6.0744428634643555,-401.0,-14.0,85.0
2026-08-24 22:57:14.714326,6.082277297973633,-401.0,-9.0,85.0
2026-08-24 22:57:14.722329,6.090280532836914,-420.0,-5.0,85.0
2026-08-24 22:57:14.746848,6.11479926109314,-391.0,-1.0,85.0
2026-08-24 22:57:14.758849,6.126800298690796,-424.0,0.0,85.0
2026-08-24 22:57:14.764368,6.132319211959839,-413.0,0.0,85.0
2026-08-24 22:57:14.765877,6.133828163146973,-415.0,2.0,85.0
2026-08-24 22:57:14.780114,6.148064851760864,-441.0,4.0,85.0
2026-08-24 22:57:14.796115,6.164065837860107,-422.0,3.0,85.0
2026-08-24 22:57:14.796115,6.164065837860107,-450.0,2.0,85.0
2026-08-24 22:57:14.797623,6.165573835372925,-434.0,2.0,85.0
2026-08-24 22:57:14.798223,6.166173934936523,-441.0,2.0,85.0
2026-08-24 22:57:14.802235,6.1701860427856445,-462.0,2.0,85.0
2026-08-24 22:57:14.810475,6.178426265716553,-441.0,3.0,85.0
2026-08-24 22:57:14.820244,6.188195466995239,-479.0,3.0,85.0
2026-08-24 22:57:14.827243,6.195194482803345,-470.0,1.0,85.0
2026-08-24 22:57:14.834762,6.202713489532471,-478.0,1.0,85.0
2026-08-24 22:57:14.842281,6.210232734680176,-499.0,1.0,85.0
2026-08-24 22:57:14.850280,6.218231201171875,-481.0,0.0,85.0
2026-08-24 22:57:14.858662,6.2266130447387695,-502.0,0.0,85.0
2026-08-24 22:57:14.866570,6.23452091217041,-478.0,1.0,85.0
2026-08-24 22:57:14.875062,6.24301290512085,-476.0,0.0,85.0
2026-08-24 22:57:14.882580,6.250531196594238,-478.0,1.0,85.0
2026-08-24 22:57:14.890582,6.258533239364624,-440.0,2.0,85.0
2026-08-24 22:57:14.899101,6.267051935195923,-456.0,2.0,85.0
2026-08-24 22:57:14.906679,6.274630546569824,-426.0,0.0,85.0
2026-08-24 22:57:14.914204,6.282154560089111,-422.0,1.0,85.0
2026-08-24 22:57:14.923205,6.29115629196167,-431.0,1.0,85.0
2026-08-24 22:57:14.930304,6.298255681991577,-404.0,0.0,85.0
2026-08-24 22:57:14.939001,6.3069517612457275,-425.0,0.0,85.0
2026-08-24 22:57:14.946800,6.314750909805298,-398.0,1.0,85.0
2026-08-24 22:57:14.954340,6.322291135787964,-402.0,1.0,85.0
2026-08-24 22:57:14.963351,6.331302165985107,-411.0,2.0,85.0
2026-08-24 22:57:14.970794,6.3387451171875,-387.0,3.0,85.0
2026-08-24 22:57:14.978314,6.346265077590942,-418.0,2.0,85.0
2026-08-24 22:57:14.986681,6.354632139205933,-397.0,1.0,85.0
2026-08-24 22:57:14.995759,6.3637096881866455,-407.0,1.0,85.0
2026-08-24 22:57:15.003288,6.371238946914673,-419.0,1.0,85.0
2026-08-24 22:57:15.010522,6.378473281860352,-401.0,0.0,85.0
2026-08-24 22:57:15.018339,6.386290073394775,-426.0,1.0,85.0
2026-08-24 22:57:15.026920,6.394870758056641,-398.0,1.0,85.0
2026-08-24 22:57:15.035932,6.40388298034668,-409.0,1.0,85.0
2026-08-24 22:57:15.043757,6.411707878112793,-415.0,1.0,85.0
2026-08-24 22:57:15.051214,6.4191648960113525,-392.0,2.0,85.0
2026-08-24 22:57:15.059346,6.427296876907349,-423.0,2.0,85.0
2026-08-24 22:57:15.067068,6.435019016265869,-396.0,1.0,85.0
2026-08-24 22:57:15.076030,6.443981170654297,-409.0,0.0,85.0
2026-08-24 22:57:15.083295,6.451246023178101,-419.0,-1.0,85.0
2026-08-24 22:57:15.091816,6.459766626358032,-403.0,-2.0,85.0
2026-08-24 22:57:15.099713,6.467664003372192,-423.0,-2.0,85.0
2026-08-24 22:57:15.107328,6.475279331207275,-394.0,-2.0,85.0
2026-08-24 22:57:15.115448,6.483399391174316,-404.0,-3.0,85.0
2026-08-24 22:57:15.124047,6.491997957229614,-407.0,-3.0,85.0
2026-08-24 22:57:15.131465,6.499415636062622,-389.0,-3.0,85.0
2026-08-24 22:57:15.139335,6.507286071777344,-416.0,-3.0,85.0
2026-08-24 22:57:15.148041,6.515991926193237,-390.0,-3.0,85.0
2026-08-24 22:57:15.155885,6.523835897445679,-405.0,-1.0,85.0
2026-08-24 22:57:15.163938,6.53188943862915,-410.0,0.0,85.0
2026-08-24 22:57:15.171938,6.539888620376587,-396.0,0.0,85.0
2026-08-24 22:57:15.179686,6.547637701034546,-418.0,1.0,85.0
2026-08-24 22:57:15.186973,6.55492377281189,-387.0,2.0,85.0
2026-08-24 22:57:15.195952,6.563903570175171,-401.0,1.0,85.0
2026-08-24 22:57:15.203950,6.571901082992554,-400.0,2.0,85.0
2026-08-24 22:57:15.211272,6.579222917556763,-384.0,4.0,85.0
2026-08-24 22:57:15.219820,6.58777117729187,-415.0,4.0,85.0
2026-08-24 22:57:15.227935,6.595885992050171,-389.0,1.0,85.0
2026-08-24 22:57:15.235931,6.603882074356079,-410.0,-3.0,85.0
2026-08-24 22:57:15.243392,6.611342668533325,-417.0,-20.0,85.0
2026-08-24 22:57:15.251070,6.61902117729187,-410.0,-49.0,85.0
2026-08-24 22:57:15.259590,6.627540826797485,-435.0,-59.0,85.0
2026-08-24 22:57:15.267097,6.6350486278533936,-402.0,-31.0,85.0
2026-08-24 22:57:15.276109,6.644059896469116,-418.0,3.0,85.0
2026-08-24 22:57:15.283708,6.6516594886779785,-409.0,12.0,85.0
2026-08-24 22:57:15.291674,6.659625053405762,-391.0,5.0,85.0
2026-08-24 22:57:15.299751,6.6677024364471436,-415.0,2.0,85.0
2026-08-24 22:57:15.307288,6.675239324569702,-382.0,1.0,85.0
2026-08-24 22:57:15.315350,6.683300733566284,-400.0,-1.0,85.0
2026-08-24 22:57:15.324122,6.692072868347168,-402.0,-2.0,85.0
2026-08-24 22:57:15.332099,6.700050592422485,-390.0,-3.0,85.0
2026-08-24 22:57:15.339101,6.707052230834961,-412.0,-3.0,85.0
2026-08-24 22:57:15.347699,6.715649843215942,-379.0,-3.0,85.0
2026-08-24 22:57:15.355759,6.72370982170105,-394.0,-3.0,85.0
2026-08-24 22:57:15.363268,6.731219530105591,-391.0,-3.0,85.0
2026-08-24 22:57:15.371798,6.739749431610107,-408.0,-3.0,85.0
2026-08-24 22:57:15.381335,6.749285936355591,-499.0,-4.0,85.0
2026-08-24 22:57:15.387841,6.7557923793792725,-589.0,-6.0,85.0
2026-08-24 22:57:15.395401,6.763351917266846,-635.0,-6.0,85.0
2026-08-24 22:57:15.403581,6.771531820297241,-511.0,-7.0,85.0
2026-08-24 22:57:15.411786,6.779737234115601,-377.0,-9.0,85.0
2026-08-24 22:57:15.420083,6.788033962249756,-383.0,-10.0,85.0
2026-08-24 22:57:15.427613,6.7955639362335205,-374.0,-10.0,85.0
2026-08-24 22:57:15.436159,6.804110527038574,-399.0,-10.0,85.0
2026-08-24 22:57:15.443672,6.8116230964660645,-395.0,-12.0,85.0
2026-08-24 22:57:15.451670,6.819620609283447,-389.0,-13.0,85.0
2026-08-24 22:57:15.460214,6.828165531158447,-416.0,-15.0,85.0
2026-08-24 22:57:15.467733,6.835683822631836,-390.0,-17.0,85.0
2026-08-24 22:57:15.476063,6.844013929367065,-413.0,-18.0,85.0
2026-08-24 22:57:15.484186,6.852137565612793,-411.0,-20.0,85.0
2026-08-24 22:57:15.492254,6.8602049350738525,-408.0,-21.0,85.0
2026-08-24 22:57:15.499884,6.867835521697998,-427.0,-20.0,85.0
2026-08-24 22:57:15.508062,6.876012563705444,-403.0,-18.0,85.0
2026-08-24 22:57:15.516089,6.884040355682373,-423.0,-16.0,85.0
2026-08-24 22:57:15.524435,6.892386436462402,-417.0,-14.0,85.0
2026-08-24 22:57:15.532103,6.900054216384888,-416.0,-10.0,85.0
2026-08-24 22:57:15.539795,6.907745599746704,-441.0,-7.0,85.0
2026-08-24 22:57:15.548180,6.916131258010864,-419.0,-4.0,85.0
2026-08-24 22:57:15.556413,6.924363851547241,-448.0,-2.0,85.0
2026-08-24 22:57:15.564088,6.932039022445679,-447.0,-1.0,85.0
2026-08-24 22:57:15.571598,6.939549446105957,-450.0,0.0,85.0
2026-08-24 22:57:15.580122,6.948073387145996,-474.0,2.0,85.0
2026-08-24 22:57:15.587795,6.955745697021484,-453.0,4.0,85.0
2026-08-24 22:57:15.596631,6.964582443237305,-484.0,4.0,85.0
2026-08-24 22:57:15.604151,6.97210168838501,-478.0,4.0,85.0
2026-08-24 22:57:15.612258,6.9802086353302,-483.0,4.0,85.0
2026-08-24 22:57:15.620629,6.988579988479614,-507.0,3.0,85.0
2026-08-24 22:57:15.628071,6.99602198600769,-481.0,2.0,85.0
2026-08-24 22:57:15.636797,7.0047478675842285,-505.0,2.0,85.0
2026-08-24 22:57:15.644331,7.012282133102417,-488.0,1.0,85.0
2026-08-24 22:57:15.651442,7.019393444061279,-479.0,0.0,85.0
2026-08-24 22:57:15.660483,7.0284340381622314,-482.0,0.0,85.0
2026-08-24 22:57:15.668002,7.035953044891357,-440.0,1.0,85.0
2026-08-24 22:57:15.676411,7.044362306594849,-449.0,1.0,85.0
2026-08-24 22:57:15.683927,7.051877975463867,-418.0,1.0,85.0
2026-08-24 22:57:15.692075,7.060026168823242,-412.0,1.0,85.0
2026-08-24 22:57:15.700479,7.068430423736572,-425.0,0.0,85.0
2026-08-24 22:57:15.708677,7.076628684997559,-391.0,1.0,85.0
2026-08-24 22:57:15.716057,7.08400821685791,-416.0,1.0,85.0
2026-08-24 22:57:15.723499,7.091450214385986,-401.0,-1.0,85.0
2026-08-24 22:57:15.733015,7.100966453552246,-402.0,-2.0,85.0
2026-08-24 22:57:15.740534,7.108484983444214,-413.0,0.0,85.0
2026-08-24 22:57:15.748727,7.116677761077881,-387.0,2.0,85.0
2026-08-24 22:57:15.756802,7.124753475189209,-411.0,2.0,85.0
2026-08-24 22:57:15.764977,7.132927894592285,-391.0,2.0,85.0
2026-08-24 22:57:15.772416,7.140367746353149,-399.0,1.0,85.0
2026-08-24 22:57:15.780179,7.148130178451538,-413.0,1.0,85.0
2026-08-24 22:57:15.788702,7.156652927398682,-390.0,2.0,85.0
2026-08-24 22:57:15.795703,7.163654565811157,-418.0,1.0,85.0
2026-08-24 22:57:15.804223,7.172173738479614,-401.0,0.0,85.0
2026-08-24 22:57:15.812298,7.1802496910095215,-407.0,-1.0,85.0
2026-08-24 22:57:15.820326,7.18827748298645,-412.0,0.0,85.0
2026-08-24 22:57:15.829197,7.197148561477661,-391.0,1.0,85.0
2026-08-24 22:57:15.836948,7.204899072647095,-414.0,2.0,85.0
2026-08-24 22:57:15.844658,7.21260929107666,-389.0,3.0,85.0
2026-08-24 22:57:15.852648,7.22059965133667,-401.0,1.0,85.0
2026-08-24 22:57:15.860687,7.228638410568237,-411.0,0.0,85.0
2026-08-24 22:57:15.869169,7.237120151519775,-387.0,1.0,85.0
2026-08-24 22:57:15.876768,7.2447192668914795,-415.0,0.0,85.0
2026-08-24 22:57:15.884713,7.252663850784302,-395.0,-3.0,85.0
2026-08-24 22:57:15.892798,7.260748863220215,-401.0,-4.0,85.0
2026-08-24 22:57:15.900958,7.268909215927124,-403.0,-4.0,85.0
2026-08-24 22:57:15.908678,7.276628732681274,-384.0,-2.0,85.0
2026-08-24 22:57:15.917078,7.285029172897339,-408.0,-1.0,85.0
2026-08-24 22:57:15.924683,7.292633771896362,-379.0,0.0,85.0
2026-08-24 22:57:15.932592,7.300543546676636,-394.0,1.0,85.0
2026-08-24 22:57:15.940924,7.308875560760498,-401.0,2.0,85.0
2026-08-24 22:57:15.948910,7.316861152648926,-382.0,2.0,85.0
2026-08-24 22:57:15.957145,7.3250956535339355,-411.0,2.0,85.0
2026-08-24 22:57:15.964688,7.332638740539551,-389.0,2.0,85.0
2026-08-24 22:57:15.972310,7.340260982513428,-399.0,1.0,85.0
2026-08-24 22:57:15.981050,7.349000692367554,-399.0,1.0,85.0
2026-08-24 22:57:15.989133,7.357084274291992,-383.0,3.0,85.0
2026-08-24 22:57:15.996754,7.364704608917236,-406.0,3.0,85.0
2026-08-24 22:57:16.005007,7.372957944869995,-376.0,2.0,85.0
2026-08-24 22:57:16.013018,7.380968809127808,-394.0,-3.0,85.0
2026-08-24 22:57:16.020918,7.388869524002075,-397.0,-22.0,85.0
2026-08-24 22:57:16.029083,7.397034168243408,-379.0,-50.0,85.0
2026-08-24 22:57:16.037215,7.405166387557983,-408.0,-55.0,85.0
2026-08-24 22:57:16.044738,7.412688970565796,-386.0,-26.0,85.0
2026-08-24 22:57:16.053013,7.420964002609253,-397.0,4.0,85.0
2026-08-24 22:57:16.060527,7.428477764129639,-392.0,10.0,85.0
2026-08-24 22:57:16.068171,7.436121702194214,-384.0,4.0,85.0
2026-08-24 22:57:16.077347,7.445297956466675,-409.0,3.0,85.0
2026-08-24 22:57:16.085217,7.451594114303589,-383.0,3.0,85.0
2026-08-24 22:57:16.092976,7.460927248001099,-405.0,1.0,85.0
2026-08-24 22:57:16.100513,7.468463659286499,-409.0,0.0,85.0
2026-08-24 22:57:16.108727,7.476678371429443,-399.0,0.0,85.0
2026-08-24 22:57:16.118580,7.486208200454712,-424.0,-2.0,85.0
2026-08-24 22:57:16.125801,7.4937522411346436,-396.0,-3.0,85.0
2026-08-24 22:57:16.132315,7.5002663135528564,-404.0,-3.0,85.0
2026-08-24 22:57:16.141368,7.509319305419922,-392.0,-3.0,85.0
2026-08-24 22:57:16.148366,7.516317367553711,-381.0,-3.0,85.0
2026-08-24 22:57:16.156738,7.524688959121704,-398.0,-2.0,85.0
2026-08-24 22:57:16.165260,7.5332114696502686,-369.0,-4.0,85.0
2026-08-24 22:57:16.173732,7.5416834354400635,-390.0,-5.0,85.0
2026-08-24 22:57:16.181643,7.549593687057495,-388.0,-5.0,85.0
2026-08-24 22:57:16.188486,7.5564374923706055,-375.0,-6.0,85.0
2026-08-24 22:57:16.197610,7.565560579299927,-398.0,-7.0,85.0
2026-08-24 22:57:16.205126,7.5730767250061035,-373.0,-10.0,85.0
2026-08-24 22:57:16.214069,7.582019567489624,-411.0,-11.0,85.0
2026-08-24 22:57:16.221393,7.589343786239624,-452.0,-12.0,85.0
2026-08-24 22:57:16.230024,7.59797477722168,-556.0,-14.0,85.0
2026-08-24 22:57:16.237290,7.605241775512695,-642.0,-15.0,85.0
2026-08-24 22:57:16.245662,7.61361289024353,-512.0,-16.0,85.0
2026-08-24 22:57:16.253808,7.6217591762542725,-399.0,-18.0,85.0
2026-08-24 22:57:16.261811,7.629761695861816,-353.0,-19.0,85.0
2026-08-24 22:57:16.269964,7.6379148960113525,-368.0,-19.0,85.0
2026-08-24 22:57:16.278032,7.64598274230957,-402.0,-19.0,85.0
2026-08-24 22:57:16.285728,7.653678894042969,-382.0,-18.0,85.0
2026-08-24 22:57:16.293097,7.661048650741577,-401.0,-16.0,85.0
2026-08-24 22:57:16.301240,7.6691906452178955,-388.0,-12.0,85.0
2026-08-24 22:57:16.310190,7.678141355514526,-390.0,-8.0,85.0
2026-08-24 22:57:16.317566,7.685517072677612,-411.0,-4.0,85.0
2026-08-24 22:57:16.325563,7.693514108657837,-381.0,0.0,85.0
2026-08-24 22:57:16.333441,7.701391935348511,-410.0,2.0,85.0
2026-08-24 22:57:16.342006,7.709956884384155,-402.0,2.0,85.0
2026-08-24 22:57:16.349187,7.717137813568115,-401.0,4.0,85.0
2026-08-24 22:57:16.357712,7.72566294670105,-427.0,5.0,85.0
2026-08-24 22:57:16.365686,7.733636856079102,-404.0,3.0,85.0
2026-08-24 22:57:16.373204,7.741155385971069,-426.0,3.0,85.0
2026-08-24 22:57:16.381280,7.7492311000823975,-413.0,4.0,85.0
2026-08-24 22:57:16.389495,7.757446050643921,-418.0,4.0,85.0
2026-08-24 22:57:16.397691,7.765642404556274,-439.0,4.0,85.0
2026-08-24 22:57:16.405363,7.773313760757446,-415.0,4.0,85.0
2026-08-24 22:57:16.413764,7.781715631484985,-446.0,3.0,85.0
2026-08-24 22:57:16.421502,7.789453029632568,-441.0,2.0,85.0
2026-08-24 22:57:16.430159,7.798110485076904,-450.0,2.0,85.0
2026-08-24 22:57:16.437756,7.805706739425659,-478.0,2.0,85.0
2026-08-24 22:57:16.445278,7.813229322433472,-463.0,0.0,85.0
2026-08-24 22:57:16.453450,7.821401119232178,-491.0,1.0,85.0
2026-08-24 22:57:16.461969,7.829919815063477,-474.0,1.0,85.0
2026-08-24 22:57:16.470132,7.838083505630493,-483.0,1.0,85.0
2026-08-24 22:57:16.478330,7.846281290054321,-494.0,2.0,85.0
2026-08-24 22:57:16.485198,7.853148698806763,-463.0,3.0,85.0
2026-08-24 22:57:16.493734,7.861685514450073,-485.0,1.0,85.0
2026-08-24 22:57:16.501626,7.869577646255493,-456.0,1.0,85.0
2026-08-24 22:57:16.509826,7.877776622772217,-450.0,2.0,85.0
2026-08-24 22:57:16.517508,7.885458707809448,-453.0,1.0,85.0
2026-08-24 22:57:16.526052,7.894003391265869,-418.0,1.0,85.0
2026-08-24 22:57:16.534231,7.902181625366211,-431.0,2.0,85.0
2026-08-24 22:57:16.542110,7.909061670303345,-397.0,3.0,85.0
2026-08-24 22:57:16.549194,7.917145013809204,-400.0,2.0,85.0
2026-08-24 22:57:16.557612,7.925563335418701,-406.0,3.0,85.0
2026-08-24 22:57:16.565491,7.933441638946533,-376.0,4.0,85.0
2026-08-24 22:57:16.573748,7.941699504852295,-403.0,3.0,85.0
2026-08-24 22:57:16.581473,7.949423789978027,-383.0,2.0,85.0
2026-08-24 22:57:16.589708,7.957659482955933,-393.0,2.0,85.0
2026-08-24 22:57:16.597999,7.96595025062561,-407.0,1.0,85.0
2026-08-24 22:57:16.605662,7.973613023757935,-386.0,1.0,85.0
2026-08-24 22:57:16.614132,7.9820826053619385,-408.0,2.0,85.0
2026-08-24 22:57:16.621843,7.989794492721558,-383.0,1.0,85.0
2026-08-24 22:57:16.630057,7.998008489608765,-397.0,1.0,85.0
2026-08-24 22:57:16.637467,8.005418062210083,-402.0,1.0,85.0
2026-08-24 22:57:16.645310,8.013260841369629,-380.0,2.0,85.0
2026-08-24 22:57:16.653982,8.021933317184448,-407.0,2.0,85.0
2026-08-24 22:57:16.661522,8.029473304748535,-384.0,1.0,85.0
2026-08-24 22:57:16.669363,8.037314414978027,-397.0,1.0,85.0
2026-08-24 22:57:16.677775,8.045726299285889,-407.0,0.0,85.0
2026-08-24 22:57:16.685426,8.053376913070679,-388.0,0.0,85.0
2026-08-24 22:57:16.693943,8.061893701553345,-410.0,1.0,85.0
2026-08-24 22:57:16.702133,8.070083618164062,-381.0,1.0,85.0
2026-08-24 22:57:16.709712,8.077662467956543,-394.0,0.0,85.0
2026-08-24 22:57:16.717904,8.08585500717163,-396.0,-1.0,85.0
2026-08-24 22:57:16.726064,8.09401559829712,-375.0,-1.0,85.0
2026-08-24 22:57:16.733801,8.101751804351807,-401.0,-2.0,85.0
2026-08-24 22:57:16.741393,8.109343767166138,-375.0,-4.0,85.0
2026-08-24 22:57:16.749609,8.117559909820557,-391.0,-4.0,85.0
2026-08-24 22:57:16.757435,8.125386238098145,-396.0,-4.0,85.0
2026-08-24 22:57:16.766000,8.13395071029663,-379.0,-4.0,85.0
2026-08-24 22:57:16.773512,8.141463279724121,-398.0,-1.0,85.0
2026-08-24 22:57:16.781306,8.149256944656372,-372.0,1.0,85.0
2026-08-24 22:57:16.790351,8.158301830291748,-387.0,1.0,85.0
2026-08-24 22:57:16.797929,8.165879964828491,-384.0,2.0,85.0
2026-08-24 22:57:16.805842,8.173793315887451,-368.0,3.0,85.0
2026-08-24 22:57:16.813428,8.181379079818726,-394.0,3.0,85.0
2026-08-24 22:57:16.822363,8.190314054489136,-369.0,1.0,85.0
2026-08-24 22:57:16.829925,8.197876453399658,-386.0,3.0,85.0
2026-08-24 22:57:16.837673,8.205623865127563,-389.0,3.0,85.0
2026-08-24 22:57:16.846003,8.213953971862793,-376.0,0.0,85.0
2026-08-24 22:57:16.854384,8.222334861755371,-397.0,-2.0,85.0
2026-08-24 22:57:16.862237,8.230187892913818,-370.0,-15.0,85.0
2026-08-24 22:57:16.870319,8.238270044326782,-386.0,-44.0,85.0
2026-08-24 22:57:16.878479,8.24643063545227,-380.0,-57.0,85.0
2026-08-24 22:57:16.886816,8.254767179489136,-367.0,-32.0,85.0
2026-08-24 22:57:16.894841,8.262792348861694,-392.0,1.0,85.0
2026-08-24 22:57:16.902698,8.270649433135986,-367.0,11.0,85.0
2026-08-24 22:57:16.910144,8.278095006942749,-386.0,5.0,85.0
2026-08-24 22:57:16.918825,8.286776542663574,-385.0,1.0,85.0
2026-08-24 22:57:16.926400,8.294351816177368,-378.0,1.0,85.0
2026-08-24 22:57:16.934402,8.302353382110596,-399.0,1.0,85.0
2026-08-24 22:57:16.942718,8.3106689453125,-373.0,1.0,85.0
2026-08-24 22:57:16.950281,8.318232774734497,-398.0,0.0,85.0
2026-08-24 22:57:16.958410,8.326360940933228,-391.0,-1.0,85.0
2026-08-24 22:57:16.966403,8.334353923797607,-382.0,-1.0,85.0
2026-08-24 22:57:16.975034,8.342985391616821,-409.0,-1.0,85.0
2026-08-24 22:57:16.982482,8.350433349609375,-376.0,-3.0,85.0
2026-08-24 22:57:16.990788,8.358739137649536,-395.0,-3.0,85.0
2026-08-24 22:57:16.997731,8.365682601928711,-385.0,-4.0,85.0
2026-08-24 22:57:17.006716,8.374667406082153,-373.0,-5.0,85.0
2026-08-24 22:57:17.014835,8.38278603553772,-391.0,-4.0,85.0
2026-08-24 22:57:17.022077,8.39002799987793,-365.0,-4.0,85.0
2026-08-24 22:57:17.030348,8.398298978805542,-384.0,-6.0,85.0
2026-08-24 22:57:17.038830,8.40678071975708,-371.0,-7.0,85.0
2026-08-24 22:57:17.046724,8.41467547416687,-363.0,-6.0,85.0
2026-08-24 22:57:17.054506,8.422456741333008,-384.0,-8.0,85.0
2026-08-24 22:57:17.062784,8.430734634399414,-356.0,-11.0,85.0
2026-08-24 22:57:17.070534,8.438484907150269,-399.0,-12.0,85.0
2026-08-24 22:57:17.079049,8.446999788284302,-438.0,-15.0,85.0
2026-08-24 22:57:17.087152,8.455103158950806,-536.0,-17.0,85.0
2026-08-24 22:57:17.094665,8.462615728378296,-634.0,-17.0,85.0
2026-08-24 22:57:17.102203,8.470154285430908,-525.0,-18.0,85.0
2026-08-24 22:57:17.110487,8.478437900543213,-414.0,-19.0,85.0
2026-08-24 22:57:17.119019,8.4869704246521,-329.0,-18.0,85.0
2026-08-24 22:57:17.126532,8.49448299407959,-343.0,-16.0,85.0
2026-08-24 22:57:17.134810,8.502760887145996,-382.0,-14.0,85.0
2026-08-24 22:57:17.142490,8.510441303253174,-361.0,-12.0,85.0
2026-08-24 22:57:17.150723,8.518673658370972,-391.0,-9.0,85.0
2026-08-24 22:57:17.158250,8.526201009750366,-380.0,-7.0,85.0
2026-08-24 22:57:17.166531,8.53448224067688,-383.0,-4.0,85.0
2026-08-24 22:57:17.175039,8.542990684509277,-400.0,0.0,85.0
2026-08-24 22:57:17.182546,8.550496816635132,-377.0,3.0,85.0
2026-08-24 22:57:17.212562,8.58051347732544,-403.0,4.0,85.0
2026-08-24 22:57:17.212562,8.58051347732544,-383.0,5.0,85.0
2026-08-24 22:57:17.214573,8.582524061203003,-387.0,6.0,85.0
2026-08-24 22:57:17.215572,8.58352279663086,-409.0,6.0,85.0
2026-08-24 22:57:17.223618,8.591568946838379,-387.0,6.0,85.0
2026-08-24 22:57:17.230362,8.598313331604004,-418.0,4.0,85.0
2026-08-24 22:57:17.238879,8.60682988166809,-406.0,3.0,85.0
2026-08-24 22:57:17.247241,8.615192651748657,-412.0,2.0,85.0
2026-08-24 22:57:17.254703,8.62265419960022,-428.0,4.0,85.0
2026-08-24 22:57:17.263348,8.631299257278442,-412.0,4.0,85.0
2026-08-24 22:57:17.270494,8.638445615768433,-440.0,3.0,85.0
2026-08-24 22:57:17.278347,8.646298170089722,-422.0,2.0,85.0
2026-08-24 22:57:17.286626,8.654577016830444,-435.0,3.0,85.0
2026-08-24 22:57:17.294761,8.662712574005127,-462.0,3.0,85.0
2026-08-24 22:57:17.302477,8.670428037643433,-445.0,2.0,85.0
2026-08-24 22:57:17.310913,8.678864002227783,-482.0,2.0,85.0
2026-08-24 22:57:17.318695,8.6866455078125,-470.0,1.0,85.0
2026-08-24 22:57:17.327215,8.695166110992432,-475.0,0.0,85.0
2026-08-24 22:57:17.335118,8.703068971633911,-486.0,1.0,85.0
2026-08-24 22:57:17.343388,8.711338758468628,-461.0,3.0,85.0
2026-08-24 22:57:17.351060,8.719010829925537,-478.0,2.0,85.0
2026-08-24 22:57:17.358708,8.726658821105957,-443.0,3.0,85.0
2026-08-24 22:57:17.366692,8.734642744064331,-437.0,3.0,85.0
2026-08-24 22:57:17.374957,8.742908239364624,-439.0,3.0,85.0
2026-08-24 22:57:17.383170,8.751121282577515,-404.0,3.0,85.0
2026-08-24 22:57:17.390558,8.758508920669556,-421.0,2.0,85.0
2026-08-24 22:57:17.398208,8.76615858078003,-394.0,1.0,85.0
2026-08-24 22:57:17.406765,8.774715900421143,-390.0,0.0,85.0
2026-08-24 22:57:17.414994,8.782944679260254,-396.0,2.0,85.0
2026-08-24 22:57:17.422657,8.790608167648315,-376.0,3.0,85.0
2026-08-24 22:57:17.430956,8.798907279968262,-395.0,3.0,85.0
2026-08-24 22:57:17.438862,8.80681300163269,-369.0,3.0,85.0
2026-08-24 22:57:17.447096,8.815047264099121,-377.0,3.0,85.0
2026-08-24 22:57:17.455614,8.823565483093262,-390.0,3.0,85.0
2026-08-24 22:57:17.462887,8.830837965011597,-371.0,3.0,85.0
2026-08-24 22:57:17.470640,8.8385910987854,-398.0,2.0,85.0
2026-08-24 22:57:17.478691,8.84664249420166,-380.0,0.0,85.0
2026-08-24 22:57:17.486893,8.854844093322754,-387.0,0.0,85.0
2026-08-24 22:57:17.494801,8.862752199172974,-394.0,1.0,85.0
2026-08-24 22:57:17.503825,8.871776103973389,-377.0,1.0,85.0
2026-08-24 22:57:17.515365,8.883316040039062,-400.0,2.0,85.0
2026-08-24 22:57:17.519889,8.887839794158936,-373.0,2.0,85.0
2026-08-24 22:57:17.527858,8.895808935165405,-384.0,2.0,85.0
2026-08-24 22:57:17.536516,8.904467105865479,-394.0,1.0,85.0
2026-08-24 22:57:17.543062,8.911012887954712,-376.0,1.0,85.0
2026-08-24 22:57:17.551325,8.919276475906372,-401.0,1.0,85.0
2026-08-24 22:57:17.559859,8.927809953689575,-379.0,-1.0,85.0
2026-08-24 22:57:17.568213,8.936164140701294,-388.0,-2.0,85.0
2026-08-24 22:57:17.575747,8.943697690963745,-389.0,-1.0,85.0
2026-08-24 22:57:17.583573,8.951524496078491,-374.0,-1.0,85.0
2026-08-24 22:57:17.591790,8.959741115570068,-395.0,-2.0,85.0
2026-08-24 22:57:17.602306,8.97025752067566,-364.0,-2.0,85.0
2026-08-24 22:57:17.608317,8.97626781463623,-379.0,-2.0,85.0
2026-08-24 22:57:17.615438,8.983389377593994,-384.0,-2.0,85.0
2026-08-24 22:57:17.623466,8.991416931152344,-369.0,-2.0,85.0
2026-08-24 22:57:17.631178,8.999128580093384,-397.0,-1.0,85.0
2026-08-24 22:57:17.639592,9.007543563842773,-371.0,0.0,85.0
2026-08-24 22:57:17.647522,9.015472888946533,-382.0,0.0,85.0
2026-08-24 22:57:17.656039,9.023990392684937,-383.0,1.0,85.0
2026-08-24 22:57:17.663052,9.03100299835205,-369.0,1.0,85.0
2026-08-24 22:57:17.670841,9.03879165649414,-391.0,2.0,85.0
2026-08-24 22:57:17.680241,9.048191785812378,-360.0,2.0,85.0
2026-08-24 22:57:17.688474,9.056424856185913,-377.0,3.0,85.0
2026-08-24 22:57:17.696099,9.064050436019897,-380.0,2.0,85.0
2026-08-24 22:57:17.703495,9.071446180343628,-368.0,1.0,85.0
2026-08-24 22:57:17.712120,9.080070734024048,-393.0,-2.0,85.0
2026-08-24 22:57:17.719296,9.087247371673584,-369.0,-15.0,85.0
2026-08-24 22:57:17.727647,9.095597982406616,-382.0,-41.0,85.0
2026-08-24 22:57:17.735904,9.103854894638062,-377.0,-58.0,85.0
2026-08-24 22:57:17.743035,9.110986471176147,-369.0,-40.0,85.0
2026-08-24 22:57:17.750773,9.118723630905151,-388.0,-4.0,85.0
2026-08-24 22:57:17.759967,9.127918243408203,-360.0,14.0,85.0
2026-08-24 22:57:17.767826,9.13577675819397,-384.0,9.0,85.0
2026-08-24 22:57:17.776145,9.14409613609314,-382.0,3.0,85.0
2026-08-24 22:57:17.784278,9.15222954750061,-378.0,2.0,85.0
2026-08-24 22:57:17.791869,9.159820318222046,-408.0,1.0,85.0
2026-08-24 22:57:17.800358,9.168309688568115,-384.0,0.0,85.0
2026-08-24 22:57:17.807553,9.175504207611084,-403.0,0.0,85.0
2026-08-24 22:57:17.815948,9.183899402618408,-391.0,-2.0,85.0
2026-08-24 22:57:17.823580,9.19153118133545,-378.0,-3.0,85.0
2026-08-24 22:57:17.831781,9.199731826782227,-393.0,-2.0,85.0
2026-08-24 22:57:17.839631,9.207582235336304,-356.0,-1.0,85.0
2026-08-24 22:57:17.847371,9.215322256088257,-379.0,-2.0,85.0
2026-08-24 22:57:17.855729,9.223680019378662,-371.0,-3.0,85.0
2026-08-24 22:57:17.863922,9.231873273849487,-367.0,-4.0,85.0
2026-08-24 22:57:17.871518,9.239469289779663,-389.0,-6.0,85.0
2026-08-24 22:57:17.880180,9.248130798339844,-363.0,-7.0,85.0
2026-08-24 22:57:17.888180,9.256131172180176,-380.0,-7.0,85.0
2026-08-24 22:57:17.895368,9.263319492340088,-365.0,-8.0,85.0
2026-08-24 22:57:17.903407,9.271357774734497,-375.0,-10.0,85.0
2026-08-24 22:57:17.911324,9.279274940490723,-429.0,-10.0,85.0
2026-08-24 22:57:17.919368,9.28731894493103,-485.0,-10.0,85.0
2026-08-24 22:57:17.927621,9.29557204246521,-624.0,-12.0,85.0
2026-08-24 22:57:17.936129,9.30408000946045,-571.0,-15.0,85.0
2026-08-24 22:57:17.943798,9.31174921989441,-432.0,-17.0,85.0
2026-08-24 22:57:17.952315,9.320265531539917,-361.0,-19.0,85.0
2026-08-24 22:57:17.960375,9.328325748443604,-343.0,-20.0,85.0
2026-08-24 22:57:17.968015,9.335965871810913,-382.0,-20.0,85.0
2026-08-24 22:57:17.975916,9.343867540359497,-375.0,-20.0,85.0
2026-08-24 22:57:17.984004,9.351954936981201,-375.0,-19.0,85.0
2026-08-24 22:57:17.992095,9.360045671463013,-390.0,-16.0,85.0
2026-08-24 22:57:17.999844,9.36779522895813,-365.0,-12.0,85.0
2026-08-24 22:57:18.008134,9.376085042953491,-394.0,-10.0,85.0
2026-08-24 22:57:18.015789,9.383740425109863,-385.0,-7.0,85.0
2026-08-24 22:57:18.024151,9.392102241516113,-389.0,-4.0,85.0
2026-08-24 22:57:18.032117,9.400067567825317,-409.0,-1.0,85.0
2026-08-24 22:57:18.039761,9.407711744308472,-388.0,0.0,85.0
2026-08-24 22:57:18.048183,9.416133880615234,-410.0,3.0,85.0
2026-08-24 22:57:18.056350,9.424301385879517,-396.0,3.0,85.0
2026-08-24 22:57:18.064161,9.432112216949463,-402.0,2.0,85.0
2026-08-24 22:57:18.072186,9.440137147903442,-415.0,4.0,85.0
2026-08-24 22:57:18.080273,9.448224306106567,-396.0,5.0,85.0
2026-08-24 22:57:18.088109,9.45606017112732,-426.0,5.0,85.0
2026-08-24 22:57:18.096484,9.464435338973999,-417.0,3.0,85.0
2026-08-24 22:57:18.104185,9.4721360206604,-428.0,3.0,85.0
2026-08-24 22:57:18.111879,9.479830265045166,-450.0,2.0,85.0
2026-08-24 22:57:18.119671,9.487622261047363,-437.0,1.0,85.0
2026-08-24 22:57:18.127450,9.49540114402771,-463.0,2.0,85.0
2026-08-24 22:57:18.136744,9.504695177078247,-455.0,1.0,85.0
2026-08-24 22:57:18.144914,9.512864589691162,-466.0,0.0,85.0
2026-08-24 22:57:18.152572,9.520523071289062,-478.0,1.0,85.0
2026-08-24 22:57:18.160751,9.5287024974823,-459.0,2.0,85.0
2026-08-24 22:57:18.168295,9.536246061325073,-488.0,2.0,85.0
2026-08-24 22:57:18.176529,9.544480562210083,-471.0,0.0,85.0
2026-08-24 22:57:18.184619,9.552570343017578,-470.0,0.0,85.0
2026-08-24 22:57:18.192678,9.560628652572632,-476.0,1.0,85.0
2026-08-24 22:57:18.200727,9.5686776638031,-445.0,0.0,85.0
2026-08-24 22:57:18.208733,9.576683521270752,-451.0,1.0,85.0
2026-08-24 22:57:18.216756,9.584706783294678,-418.0,1.0,85.0
2026-08-24 22:57:18.224789,9.592740297317505,-413.0,0.0,85.0
2026-08-24 22:57:18.232254,9.600205183029175,-408.0,1.0,85.0
2026-08-24 22:57:18.240863,9.608814239501953,-381.0,2.0,85.0
2026-08-24 22:57:18.248049,9.615999460220337,-406.0,3.0,85.0
2026-08-24 22:57:18.256175,9.624125719070435,-383.0,2.0,85.0
2026-08-24 22:57:18.264328,9.632278680801392,-390.0,0.0,85.0
2026-08-24 22:57:18.272816,9.640767097473145,-403.0,0.0,85.0
2026-08-24 22:57:18.280180,9.648130893707275,-381.0,1.0,85.0
2026-08-24 22:57:18.288179,9.656130313873291,-404.0,1.0,85.0
2026-08-24 22:57:18.296741,9.664691686630249,-383.0,1.0,85.0
2026-08-24 22:57:18.304618,9.672569513320923,-391.0,0.0,85.0
2026-08-24 22:57:18.312865,9.680815935134888,-395.0,1.0,85.0
2026-08-24 22:57:18.320328,9.688279151916504,-376.0,2.0,85.0
2026-08-24 22:57:18.328700,9.696650981903076,-406.0,2.0,85.0
2026-08-24 22:57:18.336729,9.704679727554321,-387.0,0.0,85.0
2026-08-24 22:57:18.345050,9.713001489639282,-397.0,0.0,85.0
2026-08-24 22:57:18.352912,9.720863342285156,-407.0,0.0,85.0
2026-08-24 22:57:18.360522,9.728473424911499,-389.0,-1.0,85.0
2026-08-24 22:57:18.368283,9.736234426498413,-410.0,0.0,85.0
2026-08-24 22:57:18.376441,9.74439263343811,-387.0,1.0,85.0
2026-08-24 22:57:18.384958,9.752909183502197,-397.0,0.0,85.0
2026-08-24 22:57:18.392747,9.760698556900024,-394.0,1.0,85.0
2026-08-24 22:57:18.400180,9.768131494522095,-378.0,1.0,85.0
2026-08-24 22:57:18.408844,9.776794910430908,-408.0,0.0,85.0
2026-08-24 22:57:18.417263,9.785214185714722,-383.0,-1.0,85.0
2026-08-24 22:57:18.424788,9.792739152908325,-395.0,-2.0,85.0
2026-08-24 22:57:18.433108,9.801059007644653,-402.0,-4.0,85.0
2026-08-24 22:57:18.440635,9.808586120605469,-385.0,-5.0,85.0
2026-08-24 22:57:18.448504,9.816454648971558,-407.0,-3.0,85.0
2026-08-24 22:57:18.457021,9.82497239112854,-381.0,-2.0,85.0
2026-08-24 22:57:18.464782,9.832732677459717,-393.0,-2.0,85.0
2026-08-24 22:57:18.472648,9.840599298477173,-390.0,0.0,85.0
2026-08-24 22:57:18.480675,9.848626613616943,-373.0,3.0,85.0
2026-08-24 22:57:18.488683,9.856634378433228,-404.0,3.0,85.0
2026-08-24 22:57:18.496455,9.86440634727478,-378.0,2.0,85.0
2026-08-24 22:57:18.504916,9.872867584228516,-393.0,1.0,85.0
2026-08-24 22:57:18.512554,9.880505084991455,-398.0,0.0,85.0
2026-08-24 22:57:18.520884,9.888834953308105,-383.0,0.0,85.0
2026-08-24 22:57:18.528551,9.896502256393433,-405.0,2.0,85.0
2026-08-24 22:57:18.537074,9.905025720596313,-378.0,2.0,85.0
2026-08-24 22:57:18.544430,9.912381172180176,-393.0,-1.0,85.0
2026-08-24 22:57:18.552940,9.920890808105469,-386.0,-9.0,85.0
2026-08-24 22:57:18.561155,9.92910647392273,-374.0,-33.0,85.0
2026-08-24 22:57:18.568514,9.93646502494812,-404.0,-58.0,85.0
2026-08-24 22:57:18.577539,9.945489645004272,-378.0,-50.0,85.0
2026-08-24 22:57:18.584569,9.952520608901978,-394.0,-14.0,85.0
2026-08-24 22:57:18.592176,9.960127115249634,-397.0,9.0,85.0
2026-08-24 22:57:18.601216,9.969167232513428,-384.0,7.0,85.0
2026-08-24 22:57:18.608654,9.976605415344238,-406.0,1.0,85.0
2026-08-24 22:57:18.617258,9.985209226608276,-380.0,0.0,85.0
2026-08-24 22:57:18.624855,9.99280595779419,-396.0,-1.0,85.0
2026-08-24 22:57:18.633106,10.001056909561157,-390.0,-1.0,85.0
2026-08-24 22:57:18.641126,10.009077548980713,-381.0,0.0,85.0
2026-08-24 22:57:18.648450,10.016400814056396,-413.0,-1.0,85.0
2026-08-24 22:57:18.656971,10.024922132492065,-393.0,-3.0,85.0
2026-08-24 22:57:18.664993,10.032943964004517,-411.0,-3.0,85.0
2026-08-24 22:57:18.673014,10.040965557098389,-413.0,-5.0,85.0
2026-08-24 22:57:18.681165,10.049116611480713,-402.0,-5.0,85.0
2026-08-24 22:57:18.688818,10.056768894195557,-416.0,-4.0,85.0
2026-08-24 22:57:18.697108,10.065058946609497,-386.0,-5.0,85.0
2026-08-24 22:57:18.704559,10.072509765625,-395.0,-6.0,85.0
2026-08-24 22:57:18.713394,10.081345319747925,-382.0,-5.0,85.0
2026-08-24 22:57:18.721352,10.08930253982544,-375.0,-5.0,85.0
2026-08-24 22:57:18.729373,10.097323894500732,-399.0,-7.0,85.0
2026-08-24 22:57:18.737420,10.105371475219727,-374.0,-8.0,85.0
2026-08-24 22:57:18.745534,10.113484621047974,-391.0,-10.0,85.0
2026-08-24 22:57:18.753605,10.121556282043457,-388.0,-13.0,85.0
2026-08-24 22:57:18.762066,10.130017042160034,-378.0,-15.0,85.0
2026-08-24 22:57:18.769579,10.137530088424683,-402.0,-15.0,85.0
2026-08-24 22:57:18.776840,10.144790887832642,-411.0,-17.0,85.0
2026-08-24 22:57:18.785832,10.153783082962036,-499.0,-19.0,72.0
2026-08-24 22:57:18.793600,10.161550760269165,-606.0,-18.0,72.0
2026-08-24 22:57:18.801800,10.169750690460205,-599.0,-19.0,72.0
2026-08-24 22:57:18.810170,10.178121089935303,-495.0,-20.0,72.0
2026-08-24 22:57:18.817718,10.1856689453125,-358.0,-20.0,72.0
2026-08-24 22:57:18.825635,10.193586111068726,-374.0,-18.0,72.0
2026-08-24 22:57:18.833967,10.201917886734009,-387.0,-17.0,72.0
2026-08-24 22:57:18.841177,10.20912766456604,-388.0,-15.0,72.0
2026-08-24 22:57:18.849320,10.217270612716675,-407.0,-10.0,72.0
2026-08-24 22:57:18.857488,10.225439071655273,-383.0,-5.0,72.0
2026-08-24 22:57:18.865020,10.232971668243408,-405.0,-2.0,72.0
2026-08-24 22:57:18.873316,10.241267442703247,-389.0,1.0,72.0
2026-08-24 22:57:18.881678,10.249629259109497,-391.0,3.0,72.0
2026-08-24 22:57:18.890025,10.257975578308105,-419.0,3.0,72.0
2026-08-24 22:57:18.897447,10.265397787094116,-394.0,3.0,72.0
2026-08-24 22:57:18.913157,10.281108379364014,-420.0,3.0,72.0
2026-08-24 22:57:18.920346,10.288297414779663,-411.0,1.0,72.0
2026-08-24 22:57:18.928345,10.296295881271362,-413.0,1.0,72.0
2026-08-24 22:57:18.929853,10.29780387878418,-432.0,2.0,72.0
2026-08-24 22:57:18.937802,10.305753231048584,-410.0,2.0,72.0
2026-08-24 22:57:18.945803,10.313754558563232,-434.0,2.0,72.0
2026-08-24 22:57:18.954046,10.321996927261353,-420.0,2.0,72.0
2026-08-24 22:57:18.961553,10.329503536224365,-425.0,2.0,72.0
2026-08-24 22:57:18.969560,10.337511539459229,-453.0,1.0,72.0
2026-08-24 22:57:18.977754,10.345705032348633,-434.0,0.0,72.0
2026-08-24 22:57:18.985270,10.353220701217651,-465.0,0.0,72.0
2026-08-24 22:57:18.993133,10.361083745956421,-462.0,-2.0,72.0
2026-08-24 22:57:19.001094,10.369044780731201,-471.0,-2.0,72.0
2026-08-24 22:57:19.009627,10.377578258514404,-492.0,0.0,72.0
2026-08-24 22:57:19.017982,10.385932683944702,-476.0,0.0,72.0
2026-08-24 22:57:19.025691,10.39364242553711,-501.0,0.0,72.0
2026-08-24 22:57:19.033868,10.401818990707397,-482.0,1.0,72.0
2026-08-24 22:57:19.041964,10.409915208816528,-486.0,0.0,72.0
2026-08-24 22:57:19.050090,10.418040752410889,-501.0,-1.0,72.0
2026-08-24 22:57:19.057582,10.425533294677734,-469.0,0.0,72.0
2026-08-24 22:57:19.065969,10.433919906616211,-484.0,0.0,72.0
2026-08-24 22:57:19.074105,10.442055702209473,-455.0,-1.0,72.0
2026-08-24 22:57:19.081871,10.449822664260864,-445.0,-2.0,72.0
2026-08-24 22:57:19.089570,10.457520723342896,-444.0,0.0,72.0
2026-08-24 22:57:19.098047,10.465997695922852,-409.0,0.0,72.0
2026-08-24 22:57:19.105885,10.473836421966553,-426.0,0.0,72.0
2026-08-24 22:57:19.113718,10.481668949127197,-396.0,2.0,72.0
2026-08-24 22:57:19.121425,10.489376306533813,-398.0,2.0,72.0
2026-08-24 22:57:19.130362,10.498313188552856,-414.0,0.0,72.0
2026-08-24 22:57:19.137878,10.505829095840454,-388.0,0.0,72.0
2026-08-24 22:57:19.146123,10.514073610305786,-414.0,0.0,72.0
2026-08-24 22:57:19.153596,10.521547079086304,-396.0,-2.0,72.0
2026-08-24 22:57:19.161665,10.529615640640259,-404.0,-1.0,72.0
2026-08-24 22:57:19.170197,10.538148403167725,-414.0,0.0,72.0
2026-08-24 22:57:19.178093,10.54604434967041,-392.0,0.0,72.0
2026-08-24 22:57:19.186775,10.554725885391235,-416.0,1.0,72.0
2026-08-24 22:57:19.194186,10.562137365341187,-392.0,2.0,72.0
2026-08-24 22:57:19.202499,10.570449829101562,-402.0,1.0,72.0
2026-08-24 22:57:19.209776,10.57772707939148,-416.0,-1.0,72.0
2026-08-24 22:57:19.217876,10.585827112197876,-393.0,0.0,72.0
2026-08-24 22:57:19.225448,10.593398571014404,-421.0,0.0,72.0
2026-08-24 22:57:19.233912,10.601862668991089,-401.0,-2.0,72.0
2026-08-24 22:57:19.242314,10.610265493392944,-410.0,-1.0,72.0
2026-08-24 22:57:19.250082,10.618033170700073,-416.0,-1.0,72.0
2026-08-24 22:57:19.257841,10.625792264938354,-394.0,-1.0,72.0
2026-08-24 22:57:19.266221,10.634171962738037,-417.0,0.0,72.0
2026-08-24 22:57:19.274283,10.642234086990356,-390.0,1.0,72.0
2026-08-24 22:57:19.281888,10.649838924407959,-401.0,-1.0,72.0
2026-08-24 22:57:19.289338,10.657288789749146,-412.0,-3.0,72.0
2026-08-24 22:57:19.297662,10.665613174438477,-391.0,-4.0,72.0
2026-08-24 22:57:19.306296,10.674247026443481,-417.0,-4.0,72.0
2026-08-24 22:57:19.313954,10.681905031204224,-394.0,-5.0,72.0
2026-08-24 22:57:19.321553,10.689504384994507,-404.0,-4.0,72.0
2026-08-24 22:57:19.329301,10.69725227355957,-408.0,-3.0,72.0
2026-08-24 22:57:19.338335,10.706286430358887,-389.0,-1.0,72.0
2026-08-24 22:57:19.346013,10.713963747024536,-410.0,1.0,72.0
2026-08-24 22:57:19.353764,10.721714973449707,-386.0,2.0,72.0
2026-08-24 22:57:19.361999,10.729950189590454,-397.0,1.0,72.0
2026-08-24 22:57:19.369556,10.737506866455078,-404.0,1.0,72.0
2026-08-24 22:57:19.377538,10.745489597320557,-386.0,1.0,72.0
2026-08-24 22:57:19.387324,10.755274772644043,-412.0,1.0,72.0
2026-08-24 22:57:19.394985,10.76293659210205,-390.0,1.0,72.0
2026-08-24 22:57:19.403032,10.770983219146729,-403.0,0.0,72.0
2026-08-24 22:57:19.410435,10.778386354446411,-403.0,-1.0,72.0
2026-08-24 22:57:19.418782,10.78673267364502,-387.0,-7.0,72.0
2026-08-24 22:57:19.426966,10.79491662979126,-410.0,-27.0,72.0
2026-08-24 22:57:19.434489,10.802440166473389,-382.0,-53.0,72.0
2026-08-24 22:57:19.442381,10.81033182144165,-396.0,-54.0,72.0
2026-08-24 22:57:19.450918,10.818869590759277,-402.0,-22.0,72.0
2026-08-24 22:57:19.459023,10.826974630355835,-385.0,6.0,72.0
2026-08-24 22:57:19.466547,10.834498643875122,-412.0,8.0,72.0
2026-08-24 22:57:19.474792,10.842743396759033,-388.0,0.0,72.0
2026-08-24 22:57:19.482581,10.85053277015686,-403.0,-1.0,72.0
2026-08-24 22:57:19.489813,10.857764482498169,-404.0,-1.0,72.0
2026-08-24 22:57:19.498778,10.866728782653809,-392.0,-2.0,72.0
2026-08-24 22:57:19.506663,10.874614238739014,-417.0,-1.0,72.0
2026-08-24 22:57:19.514716,10.882666826248169,-395.0,0.0,72.0
2026-08-24 22:57:19.522242,10.890193223953247,-416.0,-2.0,72.0
2026-08-24 22:57:19.530990,10.898941040039062,-418.0,-4.0,72.0
2026-08-24 22:57:19.538513,10.906464576721191,-404.0,-4.0,72.0
2026-08-24 22:57:19.547603,10.91555380821228,-429.0,-5.0,72.0
2026-08-24 22:57:19.555109,10.923059940338135,-397.0,-6.0,72.0
2026-08-24 22:57:19.562645,10.930596113204956,-409.0,-6.0,72.0
2026-08-24 22:57:19.570735,10.938685894012451,-401.0,-7.0,72.0
2026-08-24 22:57:19.578836,10.946787118911743,-384.0,-7.0,72.0
2026-08-24 22:57:19.587069,10.9550199508667,-407.0,-7.0,72.0
2026-08-24 22:57:19.594809,10.962759733200073,-378.0,-6.0,72.0
2026-08-24 22:57:19.603011,10.970961809158325,-395.0,-8.0,72.0
2026-08-24 22:57:19.610580,10.978531122207642,-396.0,-10.0,72.0
2026-08-24 22:57:19.619124,10.987074851989746,-380.0,-12.0,72.0
2026-08-24 22:57:19.626323,10.994274139404297,-404.0,-14.0,72.0
2026-08-24 22:57:19.634829,11.002779960632324,-395.0,-16.0,72.0
2026-08-24 22:57:19.642871,11.01082181930542,-455.0,-19.0,72.0
2026-08-24 22:57:19.650832,11.018783330917358,-542.0,-20.0,72.0
2026-08-24 22:57:19.659222,11.027173042297363,-634.0,-21.0,72.0
2026-08-24 22:57:19.666891,11.034841775894165,-590.0,-21.0,72.0
2026-08-24 22:57:19.675114,11.043064594268799,-424.0,-20.0,72.0
2026-08-24 22:57:19.682826,11.050777196884155,-370.0,-20.0,72.0
2026-08-24 22:57:19.690689,11.058640480041504,-379.0,-21.0,72.0
2026-08-24 22:57:19.698328,11.066279172897339,-384.0,-18.0,72.0
2026-08-24 22:57:19.707092,11.075043201446533,-416.0,-15.0,72.0
2026-08-24 22:57:19.714811,11.082761526107788,-392.0,-12.0,72.0
2026-08-24 22:57:19.722567,11.0905179977417,-413.0,-9.0,72.0
2026-08-24 22:57:19.730826,11.098776817321777,-406.0,-5.0,72.0
2026-08-24 22:57:19.738429,11.106379508972168,-398.0,-2.0,72.0
2026-08-24 22:57:19.746663,11.114614009857178,-423.0,0.0,72.0
2026-08-24 22:57:19.755614,11.123565435409546,-395.0,3.0,72.0
2026-08-24 22:57:19.762702,11.130652666091919,-422.0,3.0,72.0
2026-08-24 22:57:19.771166,11.139117240905762,-417.0,2.0,72.0
2026-08-24 22:57:19.778720,11.146671533584595,-409.0,2.0,72.0
2026-08-24 22:57:19.787008,11.154959201812744,-440.0,3.0,72.0
2026-08-24 22:57:19.795146,11.163097143173218,-415.0,2.0,72.0
2026-08-24 22:57:19.803322,11.171273469924927,-440.0,1.0,72.0
2026-08-24 22:57:19.811069,11.179020404815674,-433.0,1.0,72.0
2026-08-24 22:57:19.818608,11.186558961868286,-428.0,1.0,72.0
2026-08-24 22:57:19.826387,11.19433856010437,-454.0,2.0,72.0
2026-08-24 22:57:19.835097,11.203047752380371,-433.0,3.0,72.0
2026-08-24 22:57:19.843030,11.210980653762817,-465.0,1.0,72.0
2026-08-24 22:57:19.850725,11.218676567077637,-462.0,0.0,72.0
2026-08-24 22:57:19.858446,11.226396799087524,-464.0,0.0,72.0
2026-08-24 22:57:19.867075,11.235026359558105,-499.0,0.0,72.0
2026-08-24 22:57:19.874173,11.24212384223938,-481.0,-1.0,72.0
2026-08-24 22:57:19.882432,11.250383138656616,-508.0,-1.0,72.0
2026-08-24 22:57:19.890994,11.258944749832153,-498.0,0.0,72.0
2026-08-24 22:57:19.899065,11.2670156955719,-491.0,0.0,72.0
2026-08-24 22:57:19.907457,11.275408506393433,-510.0,1.0,72.0
2026-08-24 22:57:19.914724,11.28267502784729,-479.0,2.0,72.0
2026-08-24 22:57:19.923109,11.291059732437134,-495.0,2.0,72.0
2026-08-24 22:57:19.930376,11.29832673072815,-471.0,0.0,72.0
2026-08-24 22:57:19.938988,11.306939363479614,-450.0,0.0,72.0
2026-08-24 22:57:19.946853,11.314803838729858,-462.0,1.0,72.0
2026-08-24 22:57:19.955371,11.323322534561157,-426.0,1.0,72.0
2026-08-24 22:57:19.962898,11.330849170684814,-437.0,1.0,72.0
2026-08-24 22:57:19.971422,11.339373350143433,-415.0,1.0,72.0
2026-08-24 22:57:19.978439,11.34639024734497,-405.0,1.0,72.0
2026-08-24 22:57:19.987133,11.355084419250488,-419.0,2.0,72.0
2026-08-24 22:57:19.994949,11.362899780273438,-394.0,2.0,72.0
2026-08-24 22:57:20.002471,11.370422601699829,-417.0,2.0,72.0
2026-08-24 22:57:20.010711,11.378661870956421,-404.0,1.0,72.0
2026-08-24 22:57:20.018713,11.386663675308228,-401.0,1.0,72.0
2026-08-24 22:57:20.027376,11.3953275680542,-424.0,1.0,72.0
2026-08-24 22:57:20.035893,11.403844118118286,-401.0,0.0,72.0
2026-08-24 22:57:20.043149,11.411100149154663,-422.0,0.0,72.0
2026-08-24 22:57:20.051151,11.41910195350647,-408.0,1.0,72.0
2026-08-24 22:57:20.059690,11.42764163017273,-404.0,1.0,72.0
2026-08-24 22:57:20.067222,11.435173273086548,-420.0,1.0,72.0
2026-08-24 22:57:20.075524,11.443475246429443,-397.0,2.0,72.0
2026-08-24 22:57:20.084034,11.451985597610474,-425.0,1.0,72.0
2026-08-24 22:57:20.092072,11.460023164749146,-408.0,0.0,72.0
2026-08-24 22:57:20.100119,11.468070268630981,-405.0,0.0,72.0
2026-08-24 22:57:20.107982,11.475933313369751,-428.0,0.0,72.0
2026-08-24 22:57:20.115509,11.483459711074829,-404.0,0.0,72.0
2026-08-24 22:57:20.123943,11.491894245147705,-426.0,-1.0,72.0
2026-08-24 22:57:20.131647,11.499598741531372,-407.0,0.0,72.0
2026-08-24 22:57:20.164305,11.53225564956665,-406.0,-1.0,72.0
2026-08-24 22:57:20.170168,11.538119077682495,-417.0,-1.0,72.0
2026-08-24 22:57:20.171310,11.539261102676392,-392.0,-1.0,72.0
2026-08-24 22:57:20.172903,11.540854454040527,-421.0,-3.0,72.0
2026-08-24 22:57:20.173647,11.541598081588745,-400.0,-4.0,72.0
2026-08-24 22:57:20.179932,11.5478835105896,-401.0,-3.0,72.0
2026-08-24 22:57:20.189397,11.557348012924194,-422.0,-3.0,72.0
2026-08-24 22:57:20.195790,11.563741207122803,-397.0,-3.0,72.0
2026-08-24 22:57:20.204115,11.572065830230713,-422.0,0.0,72.0
2026-08-24 22:57:20.211853,11.579803943634033,-398.0,1.0,72.0
2026-08-24 22:57:20.220092,11.588043451309204,-399.0,1.0,72.0
2026-08-24 22:57:20.227946,11.59589695930481,-411.0,2.0,72.0
2026-08-24 22:57:20.236194,11.604145050048828,-389.0,3.0,72.0
2026-08-24 22:57:20.243830,11.611780643463135,-418.0,2.0,72.0
2026-08-24 22:57:20.251323,11.619274139404297,-396.0,2.0,72.0
2026-08-24 22:57:20.260234,11.628185272216797,-399.0,2.0,72.0
2026-08-24 22:57:20.267965,11.635915756225586,-416.0,1.0,72.0
2026-08-24 22:57:20.275497,11.64344835281372,-395.0,-2.0,72.0
2026-08-24 22:57:20.284527,11.652477741241455,-418.0,-12.0,72.0
2026-08-24 22:57:20.291371,11.659322261810303,-396.0,-38.0,72.0
2026-08-24 22:57:20.300168,11.668119430541992,-401.0,-59.0,72.0
2026-08-24 22:57:20.307801,11.675751686096191,-405.0,-45.0,72.0
2026-08-24 22:57:20.315523,11.683473825454712,-387.0,-9.0,72.0
2026-08-24 22:57:20.323597,11.691548109054565,-419.0,11.0,72.0
2026-08-24 22:57:20.331916,11.699867486953735,-400.0,7.0,72.0
2026-08-24 22:57:20.339494,11.70744514465332,-415.0,2.0,72.0
2026-08-24 22:57:20.348074,11.716025114059448,-428.0,1.0,72.0
2026-08-24 22:57:20.355600,11.723551034927368,-412.0,-1.0,72.0
2026-08-24 22:57:20.363787,11.731737852096558,-433.0,-1.0,72.0
2026-08-24 22:57:20.376309,11.74425983428955,-403.0,0.0,72.0
2026-08-24 22:57:20.380172,11.748122692108154,-407.0,-1.0,72.0
2026-08-24 22:57:20.387905,11.75585651397705,-404.0,-2.0,72.0
2026-08-24 22:57:20.396233,11.764184474945068,-383.0,-2.0,72.0
2026-08-24 22:57:20.403898,11.771849632263184,-414.0,-3.0,72.0
2026-08-24 22:57:20.412726,11.78067684173584,-386.0,-4.0,72.0
2026-08-24 22:57:20.429241,11.797192573547363,-397.0,-4.0,72.0
2026-08-24 22:57:20.433256,11.801207304000854,-408.0,-5.0,72.0
2026-08-24 22:57:20.436780,11.804731369018555,-389.0,-6.0,72.0
2026-08-24 22:57:20.443477,11.811428546905518,-410.0,-6.0,72.0
2026-08-24 22:57:20.463968,11.83191967010498,-391.0,-6.0,72.0
2026-08-24 22:57:20.465995,11.833946466445923,-439.0,-7.0,72.0
2026-08-24 22:57:20.468149,11.836099863052368,-518.0,-8.0,72.0
2026-08-24 22:57:20.475933,11.843883752822876,-619.0,-9.0,72.0
2026-08-24 22:57:20.483025,11.85097599029541,-622.0,-11.0,72.0
2026-08-24 22:57:20.491589,11.859540224075317,-467.0,-13.0,72.0
2026-08-24 22:57:20.500097,11.868048429489136,-376.0,-14.0,72.0
2026-08-24 22:57:20.507699,11.875650405883789,-377.0,-18.0,72.0
2026-08-24 22:57:20.515961,11.883912324905396,-383.0,-20.0,72.0
2026-08-24 22:57:20.524206,11.892157316207886,-417.0,-20.0,72.0
2026-08-24 22:57:20.532729,11.90067982673645,-392.0,-21.0,72.0
2026-08-24 22:57:20.539761,11.907712459564209,-407.0,-21.0,72.0
2026-08-24 22:57:20.548634,11.916585206985474,-408.0,-19.0,72.0
2026-08-24 22:57:20.556628,11.924579620361328,-395.0,-18.0,72.0
2026-08-24 22:57:20.565396,11.933347463607788,-427.0,-16.0,72.0
2026-08-24 22:57:20.572630,11.940581321716309,-403.0,-13.0,72.0
2026-08-24 22:57:20.580498,11.948449611663818,-422.0,-8.0,72.0
2026-08-24 22:57:20.589174,11.957125425338745,-429.0,-6.0,72.0
2026-08-24 22:57:20.596299,11.964249610900879,-418.0,-4.0,72.0
2026-08-24 22:57:20.604840,11.97279143333435,-443.0,-1.0,72.0
2026-08-24 22:57:20.611537,11.979487657546997,-419.0,2.0,72.0
2026-08-24 22:57:20.619823,11.98777437210083,-435.0,3.0,72.0
2026-08-24 22:57:20.628004,11.995954751968384,-434.0,4.0,72.0
2026-08-24 22:57:20.636558,12.004508972167969,-427.0,4.0,72.0
2026-08-24 22:57:20.645091,12.013041734695435,-456.0,4.0,72.0
2026-08-24 22:57:20.652102,12.020053148269653,-439.0,4.0,72.0
2026-08-24 22:57:20.660266,12.02821660041809,-464.0,3.0,72.0
2026-08-24 22:57:20.668633,12.036583662033081,-474.0,1.0,72.0
2026-08-24 22:57:20.676625,12.044576168060303,-471.0,1.0,72.0
2026-08-24 22:57:20.684634,12.052584886550903,-500.0,2.0,72.0
2026-08-24 22:57:20.693141,12.061092376708984,-482.0,2.0,72.0
2026-08-24 22:57:20.700160,12.068111658096313,-505.0,2.0,72.0
2026-08-24 22:57:20.708976,12.076926946640015,-500.0,2.0,72.0
2026-08-24 22:57:20.716990,12.084940910339355,-491.0,1.0,72.0
2026-08-24 22:57:20.724842,12.092792749404907,-516.0,0.0,72.0
2026-08-24 22:57:20.732650,12.10060167312622,-485.0,1.0,72.0
2026-08-24 22:57:20.740416,12.108367204666138,-498.0,1.0,72.0
2026-08-24 22:57:20.748579,12.116529703140259,-485.0,-1.0,72.0
2026-08-24 22:57:20.756682,12.124633312225342,-461.0,-1.0,72.0
2026-08-24 22:57:20.765254,12.13320517539978,-466.0,0.0,72.0
2026-08-24 22:57:20.773416,12.141367197036743,-429.0,1.0,72.0
2026-08-24 22:57:20.780942,12.148893356323242,-437.0,2.0,72.0
2026-08-24 22:57:20.788420,12.156371116638184,-417.0,2.0,72.0
2026-08-24 22:57:20.796941,12.164892435073853,-405.0,2.0,72.0
2026-08-24 22:57:20.804888,12.172838926315308,-426.0,1.0,72.0
2026-08-24 22:57:20.813189,12.181139945983887,-397.0,2.0,72.0
2026-08-24 22:57:20.820647,12.188598155975342,-421.0,2.0,72.0
2026-08-24 22:57:20.828807,12.196757555007935,-416.0,0.0,72.0
2026-08-24 22:57:20.836918,12.204868793487549,-408.0,-1.0,72.0
2026-08-24 22:57:20.845101,12.21305251121521,-428.0,1.0,72.0
2026-08-24 22:57:20.852489,12.220440149307251,-401.0,2.0,72.0
2026-08-24 22:57:20.860235,12.228185653686523,-423.0,2.0,72.0
2026-08-24 22:57:20.868375,12.236326217651367,-410.0,3.0,72.0
2026-08-24 22:57:20.876892,12.244843006134033,-403.0,2.0,72.0
2026-08-24 22:57:20.884859,12.252810001373291,-426.0,1.0,72.0
2026-08-24 22:57:20.892540,12.260491371154785,-402.0,2.0,72.0
2026-08-24 22:57:20.901073,12.26902461051941,-427.0,2.0,72.0
2026-08-24 22:57:20.908367,12.276318073272705,-422.0,0.0,72.0
2026-08-24 22:57:20.917246,12.285197496414185,-415.0,0.0,72.0
2026-08-24 22:57:20.925251,12.293201923370361,-431.0,1.0,72.0
2026-08-24 22:57:20.932703,12.300654411315918,-405.0,1.0,72.0
2026-08-24 22:57:20.940888,12.308839082717896,-425.0,2.0,72.0
2026-08-24 22:57:20.948425,12.316375732421875,-407.0,2.0,72.0
2026-08-24 22:57:20.956597,12.324548244476318,-404.0,2.0,72.0
2026-08-24 22:57:20.965226,12.333176612854004,-422.0,0.0,72.0
2026-08-24 22:57:20.972456,12.340406894683838,-398.0,-1.0,72.0
2026-08-24 22:57:20.980988,12.348939657211304,-425.0,-2.0,72.0
2026-08-24 22:57:20.988943,12.35689401626587,-413.0,-4.0,72.0
2026-08-24 22:57:20.997204,12.365155696868896,-409.0,-5.0,72.0
2026-08-24 22:57:21.005007,12.372958183288574,-423.0,-3.0,72.0
2026-08-24 22:57:21.012610,12.380560874938965,-397.0,-1.0,72.0
2026-08-24 22:57:21.020425,12.388375997543335,-421.0,1.0,72.0
2026-08-24 22:57:21.028652,12.396603107452393,-401.0,3.0,72.0
2026-08-24 22:57:21.036927,12.404877662658691,-400.0,2.0,72.0
2026-08-24 22:57:21.044447,12.412398099899292,-417.0,1.0,72.0
2026-08-24 22:57:21.052989,12.420939922332764,-393.0,2.0,72.0
2026-08-24 22:57:21.061412,12.429363489151001,-422.0,2.0,72.0
2026-08-24 22:57:21.069274,12.437225341796875,-409.0,0.0,72.0
2026-08-24 22:57:21.077358,12.445309162139893,-408.0,1.0,72.0
2026-08-24 22:57:21.084611,12.452561855316162,-421.0,2.0,72.0
2026-08-24 22:57:21.092784,12.460735559463501,-396.0,1.0,72.0
2026-08-24 22:57:21.100921,12.4688720703125,-422.0,-6.0,72.0
2026-08-24 22:57:21.109184,12.477135181427002,-403.0,-29.0,72.0
2026-08-24 22:57:21.116705,12.484655618667603,-407.0,-55.0,72.0
2026-08-24 22:57:21.125552,12.493503093719482,-426.0,-51.0,72.0
2026-08-24 22:57:21.132599,12.500550270080566,-407.0,-17.0,72.0
2026-08-24 22:57:21.140596,12.508547067642212,-438.0,9.0,72.0
2026-08-24 22:57:21.149105,12.517056703567505,-426.0,10.0,72.0
2026-08-24 22:57:21.157301,12.525251626968384,-422.0,3.0,72.0
2026-08-24 22:57:21.164756,12.53270673751831,-428.0,2.0,72.0
2026-08-24 22:57:21.173688,12.541639566421509,-398.0,2.0,72.0
2026-08-24 22:57:21.180794,12.54874563217163,-418.0,1.0,72.0
2026-08-24 22:57:21.188799,12.556749820709229,-394.0,1.0,72.0
2026-08-24 22:57:21.196794,12.5647451877594,-395.0,0.0,72.0
2026-08-24 22:57:21.205559,12.573509931564331,-407.0,-2.0,72.0
2026-08-24 22:57:21.213094,12.581045627593994,-386.0,-2.0,72.0
2026-08-24 22:57:21.221599,12.589550495147705,-414.0,-3.0,72.0
2026-08-24 22:57:21.229613,12.597563743591309,-400.0,-5.0,72.0
2026-08-24 22:57:21.237719,12.60567045211792,-397.0,-5.0,72.0
2026-08-24 22:57:21.245248,12.61319899559021,-419.0,-5.0,72.0
2026-08-24 22:57:21.253460,12.621410608291626,-440.0,-6.0,72.0
2026-08-24 22:57:21.261988,12.629939556121826,-554.0,-5.0,72.0
2026-08-24 22:57:21.269201,12.637152433395386,-644.0,-5.0,72.0
2026-08-24 22:57:21.278002,12.645953178405762,-594.0,-6.0,72.0
2026-08-24 22:57:21.285531,12.65348196029663,-460.0,-8.0,72.0
2026-08-24 22:57:21.293705,12.661655902862549,-356.0,-9.0,72.0
2026-08-24 22:57:21.301546,12.669497013092041,-396.0,-11.0,72.0
2026-08-24 22:57:21.309342,12.677293539047241,-400.0,-14.0,72.0
2026-08-24 22:57:21.317875,12.685826301574707,-407.0,-16.0,72.0
2026-08-24 22:57:21.325945,12.693896293640137,-417.0,-17.0,72.0
2026-08-24 22:57:21.333135,12.701086044311523,-399.0,-19.0,72.0
2026-08-24 22:57:21.341457,12.709408044815063,-424.0,-19.0,72.0
2026-08-24 22:57:21.349971,12.71792197227478,-405.0,-19.0,72.0
2026-08-24 22:57:21.357231,12.725181818008423,-412.0,-20.0,72.0
2026-08-24 22:57:21.365407,12.733357667922974,-423.0,-20.0,72.0
2026-08-24 22:57:21.374249,12.742200136184692,-406.0,-19.0,72.0
2026-08-24 22:57:21.382036,12.74998688697815,-438.0,-17.0,72.0
2026-08-24 22:57:21.389250,12.757201194763184,-425.0,-14.0,72.0
2026-08-24 22:57:21.397733,12.765684127807617,-430.0,-10.0,72.0
2026-08-24 22:57:21.405216,12.773167371749878,-437.0,-7.0,72.0
2026-08-24 22:57:21.414226,12.782177448272705,-423.0,-4.0,72.0
2026-08-24 22:57:21.421514,12.789464712142944,-450.0,0.0,72.0
2026-08-24 22:57:21.429841,12.797792434692383,-432.0,2.0,72.0
2026-08-24 22:57:21.437364,12.805315732955933,-445.0,4.0,72.0
2026-08-24 22:57:21.445446,12.813397645950317,-458.0,4.0,72.0
2026-08-24 22:57:21.453527,12.821477890014648,-448.0,4.0,72.0
2026-08-24 22:57:21.461350,12.829300880432129,-486.0,3.0,72.0
2026-08-24 22:57:21.469641,12.837592601776123,-475.0,1.0,72.0
2026-08-24 22:57:21.478158,12.846109628677368,-492.0,1.0,72.0
2026-08-24 22:57:21.486106,12.854057312011719,-501.0,2.0,72.0
2026-08-24 22:57:21.493623,12.861573696136475,-488.0,2.0,72.0
2026-08-24 22:57:21.501893,12.86984395980835,-517.0,2.0,72.0
2026-08-24 22:57:21.509371,12.87732195854187,-492.0,2.0,72.0
2026-08-24 22:57:21.517299,12.885250091552734,-500.0,3.0,72.0
2026-08-24 22:57:21.526356,12.894306898117065,-499.0,2.0,72.0
2026-08-24 22:57:21.533589,12.901540517807007,-472.0,1.0,72.0
2026-08-24 22:57:21.541383,12.9093337059021,-490.0,0.0,72.0
2026-08-24 22:57:21.549405,12.917356491088867,-457.0,-1.0,72.0
2026-08-24 22:57:21.557353,12.925304174423218,-452.0,-1.0,72.0
2026-08-24 22:57:21.565587,12.933538436889648,-441.0,0.0,72.0
2026-08-24 22:57:21.573796,12.941747188568115,-416.0,0.0,72.0
2026-08-24 22:57:21.581796,12.949747562408447,-433.0,1.0,72.0
2026-08-24 22:57:21.589922,12.95787262916565,-403.0,2.0,72.0
2026-08-24 22:57:21.597660,12.965611457824707,-414.0,2.0,72.0
2026-08-24 22:57:21.606183,12.974134683609009,-412.0,1.0,72.0
2026-08-24 22:57:21.614185,12.982136726379395,-397.0,1.0,72.0
2026-08-24 22:57:21.622287,12.990237951278687,-426.0,1.0,72.0
2026-08-24 22:57:21.630019,12.997970581054688,-405.0,0.0,72.0
2026-08-24 22:57:21.637866,13.005817174911499,-419.0,1.0,72.0
2026-08-24 22:57:21.645367,13.013318538665771,-414.0,1.0,72.0
2026-08-24 22:57:21.653439,13.021389961242676,-401.0,1.0,72.0
2026-08-24 22:57:21.661799,13.029750347137451,-425.0,1.0,72.0
2026-08-24 22:57:21.670319,13.038270473480225,-396.0,2.0,72.0
2026-08-24 22:57:21.678347,13.046298265457153,-415.0,3.0,72.0
2026-08-24 22:57:21.685345,13.053296327590942,-415.0,2.0,72.0
2026-08-24 22:57:21.693689,13.06164002418518,-401.0,2.0,72.0
2026-08-24 22:57:21.701694,13.069644927978516,-431.0,1.0,72.0
2026-08-24 22:57:21.710140,13.078091382980347,-407.0,0.0,72.0
2026-08-24 22:57:21.718131,13.086082458496094,-422.0,1.0,72.0
2026-08-24 22:57:21.725229,13.093179702758789,-414.0,1.0,72.0
2026-08-24 22:57:21.734412,13.102362871170044,-402.0,0.0,72.0
2026-08-24 22:57:21.741805,13.109755754470825,-424.0,1.0,72.0
2026-08-24 22:57:21.750350,13.118301153182983,-394.0,1.0,72.0
2026-08-24 22:57:21.757406,13.125356912612915,-411.0,0.0,72.0
2026-08-24 22:57:21.765992,13.133943557739258,-408.0,-1.0,72.0
2026-08-24 22:57:21.774518,13.14246916770935,-395.0,-2.0,72.0
2026-08-24 22:57:21.782061,13.150012254714966,-422.0,-4.0,72.0
2026-08-24 22:57:21.790107,13.158058166503906,-398.0,-5.0,72.0
2026-08-24 22:57:21.797731,13.165682077407837,-414.0,-3.0,72.0
2026-08-24 22:57:21.806138,13.174089193344116,-405.0,-1.0,72.0
2026-08-24 22:57:21.813658,13.181609153747559,-394.0,1.0,72.0
2026-08-24 22:57:21.821671,13.189622402191162,-416.0,2.0,72.0
2026-08-24 22:57:21.828815,13.196765899658203,-388.0,3.0,72.0
2026-08-24 22:57:21.838372,13.20632266998291,-407.0,4.0,72.0
2026-08-24 22:57:21.863290,13.231241464614868,-403.0,4.0,72.0
2026-08-24 22:57:21.864287,13.232238054275513,-392.0,3.0,72.0
2026-08-24 22:57:21.865287,13.233238220214844,-419.0,2.0,72.0
2026-08-24 22:57:21.870787,13.23873782157898,-395.0,2.0,72.0
2026-08-24 22:57:21.878119,13.246070623397827,-412.0,2.0,72.0
2026-08-24 22:57:21.886410,13.254361152648926,-401.0,0.0,72.0
2026-08-24 22:57:21.894423,13.262373924255371,-396.0,-10.0,72.0
2026-08-24 22:57:21.903484,13.271434783935547,-418.0,-35.0,72.0
2026-08-24 22:57:21.910741,13.278692483901978,-392.0,-57.0,72.0
2026-08-24 22:57:21.918749,13.286699771881104,-415.0,-46.0,72.0
2026-08-24 22:57:21.926303,13.294253826141357,-414.0,-9.0,72.0
2026-08-24 22:57:21.934854,13.302805662155151,-410.0,13.0,72.0
2026-08-24 22:57:21.942893,13.310844421386719,-434.0,8.0,72.0
2026-08-24 22:57:21.950412,13.318363428115845,-410.0,1.0,72.0
2026-08-24 22:57:21.958925,13.326876401901245,-423.0,2.0,72.0
2026-08-24 22:57:21.967004,13.33495545387268,-404.0,2.0,72.0
2026-08-24 22:57:21.974509,13.34246015548706,-395.0,0.0,72.0
2026-08-24 22:57:21.982499,13.350450038909912,-410.0,1.0,72.0
2026-08-24 22:57:21.990561,13.358512163162231,-382.0,1.0,72.0
2026-08-24 22:57:21.999196,13.367147207260132,-404.0,0.0,72.0
2026-08-24 22:57:22.006821,13.374772548675537,-396.0,0.0,72.0
2026-08-24 22:57:22.014837,13.382788181304932,-388.0,-1.0,72.0
2026-08-24 22:57:22.022879,13.390830516815186,-412.0,-4.0,72.0
2026-08-24 22:57:22.030910,13.398860931396484,-383.0,-5.0,72.0
2026-08-24 22:57:22.039048,13.406999111175537,-409.0,-4.0,72.0
2026-08-24 22:57:22.047046,13.414996862411499,-424.0,-4.0,72.0
2026-08-24 22:57:22.054586,13.422537565231323,-486.0,-4.0,72.0
2026-08-24 22:57:22.062125,13.430075645446777,-625.0,-5.0,72.0
2026-08-24 22:57:22.070932,13.438883066177368,-614.0,-6.0,72.0
2026-08-24 22:57:22.079067,13.447018384933472,-514.0,-6.0,72.0
2026-08-24 22:57:22.087157,13.455108165740967,-378.0,-8.0,72.0
2026-08-24 22:57:22.094707,13.462658405303955,-363.0,-10.0,72.0
2026-08-24 22:57:22.102909,13.47085952758789,-407.0,-13.0,72.0
2026-08-24 22:57:22.111185,13.479136228561401,-389.0,-16.0,72.0
2026-08-24 22:57:22.118698,13.486649513244629,-417.0,-17.0,72.0
2026-08-24 22:57:22.126257,13.494208574295044,-398.0,-18.0,72.0
2026-08-24 22:57:22.134570,13.502521753311157,-399.0,-19.0,72.0
2026-08-24 22:57:22.142917,13.510868549346924,-418.0,-19.0,72.0
2026-08-24 22:57:22.151130,13.519080877304077,-393.0,-19.0,72.0
2026-08-24 22:57:22.159737,13.527687788009644,-422.0,-17.0,72.0
2026-08-24 22:57:22.166311,13.53426218032837,-413.0,-16.0,72.0
2026-08-24 22:57:22.174869,13.542819738388062,-414.0,-14.0,72.0
2026-08-24 22:57:22.182841,13.55079197883606,-434.0,-11.0,72.0
2026-08-24 22:57:22.190361,13.558311939239502,-413.0,-9.0,72.0
2026-08-24 22:57:22.198875,13.566826343536377,-439.0,-4.0,72.0
2026-08-24 22:57:22.206358,13.574308633804321,-425.0,0.0,72.0
2026-08-24 22:57:22.214350,13.582301378250122,-430.0,2.0,72.0
2026-08-24 22:57:22.222880,13.590830564498901,-445.0,4.0,72.0
2026-08-24 22:57:22.230480,13.598430871963501,-425.0,5.0,72.0
2026-08-24 22:57:22.239102,13.60705280303955,-459.0,5.0,72.0
2026-08-24 22:57:22.246816,13.614767074584961,-450.0,6.0,72.0
2026-08-24 22:57:22.254985,13.622936248779297,-462.0,6.0,72.0
2026-08-24 22:57:22.263248,13.631199359893799,-484.0,4.0,72.0
2026-08-24 22:57:22.271070,13.639021158218384,-469.0,3.0,72.0
2026-08-24 22:57:22.278841,13.646791696548462,-504.0,4.0,72.0
2026-08-24 22:57:22.286621,13.654571771621704,-489.0,5.0,72.0
2026-08-24 22:57:22.295070,13.663021087646484,-498.0,4.0,72.0
2026-08-24 22:57:22.303108,13.671058654785156,-508.0,3.0,72.0
2026-08-24 22:57:22.311405,13.67935562133789,-482.0,3.0,72.0
2026-08-24 22:57:22.318711,13.686662435531616,-509.0,3.0,72.0
2026-08-24 22:57:22.326950,13.69490098953247,-483.0,2.0,72.0
2026-08-24 22:57:22.334778,13.702729225158691,-477.0,2.0,72.0
2026-08-24 22:57:22.342766,13.71071720123291,-478.0,1.0,72.0
2026-08-24 22:57:22.351225,13.719176530838013,-439.0,0.0,72.0
2026-08-24 22:57:22.359571,13.727522373199463,-454.0,1.0,72.0
2026-08-24 22:57:22.367184,13.735135078430176,-421.0,2.0,72.0
2026-08-24 22:57:22.374854,13.742805480957031,-420.0,1.0,72.0
2026-08-24 22:57:22.382673,13.750624656677246,-421.0,2.0,72.0
2026-08-24 22:57:22.390813,13.758764266967773,-393.0,3.0,72.0
2026-08-24 22:57:22.399330,13.767281532287598,-421.0,3.0,72.0
2026-08-24 22:57:22.406129,13.774080514907837,-402.0,2.0,72.0
2026-08-24 22:57:22.415404,13.783355474472046,-410.0,2.0,72.0
2026-08-24 22:57:22.423101,13.791052341461182,-421.0,1.0,72.0
2026-08-24 22:57:22.430632,13.798583030700684,-397.0,1.0,72.0
2026-08-24 22:57:22.438826,13.806777000427246,-426.0,2.0,72.0
2026-08-24 22:57:22.446636,13.814587593078613,-401.0,2.0,72.0
2026-08-24 22:57:22.454462,13.822413444519043,-409.0,2.0,72.0
2026-08-24 22:57:22.462990,13.830940961837769,-416.0,2.0,72.0
2026-08-24 22:57:22.470982,13.838932514190674,-392.0,2.0,72.0
2026-08-24 22:57:22.479322,13.847273349761963,-424.0,2.0,72.0
2026-08-24 22:57:22.486460,13.854411125183105,-405.0,2.0,72.0
2026-08-24 22:57:22.495508,13.86345887184143,-414.0,2.0,72.0
2026-08-24 22:57:22.502837,13.870787620544434,-425.0,1.0,72.0
2026-08-24 22:57:22.511358,13.87930941581726,-401.0,0.0,72.0
2026-08-24 22:57:22.519641,13.887592315673828,-427.0,1.0,72.0
2026-08-24 22:57:22.527969,13.895920276641846,-403.0,1.0,72.0
2026-08-24 22:57:22.535606,13.903557062149048,-411.0,1.0,72.0
2026-08-24 22:57:22.544033,13.91198444366455,-414.0,1.0,72.0
2026-08-24 22:57:22.551803,13.919753551483154,-391.0,0.0,72.0
2026-08-24 22:57:22.559865,13.927816390991211,-419.0,-1.0,72.0
2026-08-24 22:57:22.567593,13.935543537139893,-401.0,-1.0,72.0
2026-08-24 22:57:22.575987,13.94393801689148,-411.0,-2.0,72.0
2026-08-24 22:57:22.583415,13.951365947723389,-417.0,-4.0,72.0
2026-08-24 22:57:22.591260,13.959210872650146,-395.0,-3.0,72.0
2026-08-24 22:57:22.599765,13.967715978622437,-421.0,-1.0,72.0
2026-08-24 22:57:22.608053,13.976003646850586,-397.0,1.0,72.0
2026-08-24 22:57:22.615880,13.98383116722107,-406.0,2.0,72.0
2026-08-24 22:57:22.624185,13.992136240005493,-408.0,2.0,72.0
2026-08-24 22:57:22.631879,13.999829769134521,-387.0,3.0,72.0
2026-08-24 22:57:22.639852,14.007803440093994,-416.0,3.0,72.0
2026-08-24 22:57:22.647638,14.015589475631714,-395.0,2.0,72.0
2026-08-24 22:57:22.655825,14.023776054382324,-409.0,1.0,72.0
2026-08-24 22:57:22.663322,14.031272888183594,-414.0,2.0,72.0
2026-08-24 22:57:22.671017,14.038968086242676,-392.0,2.0,72.0
2026-08-24 22:57:22.679900,14.047851085662842,-420.0,0.0,72.0
2026-08-24 22:57:22.687412,14.055362939834595,-396.0,-5.0,72.0
2026-08-24 22:57:22.695927,14.063878059387207,-407.0,-23.0,72.0
2026-08-24 22:57:22.703634,14.071585655212402,-406.0,-51.0,72.0
2026-08-24 22:57:22.711958,14.079909324645996,-387.0,-55.0,72.0
2026-08-24 22:57:22.720206,14.088156938552856,-419.0,-24.0,72.0
2026-08-24 22:57:22.727312,14.095263242721558,-399.0,7.0,72.0
2026-08-24 22:57:22.735863,14.103814125061035,-418.0,11.0,72.0
2026-08-24 22:57:22.743838,14.111789464950562,-423.0,3.0,72.0
2026-08-24 22:57:22.751430,14.119380712509155,-408.0,1.0,72.0
2026-08-24 22:57:22.759288,14.127238988876343,-436.0,1.0,72.0
2026-08-24 22:57:22.768070,14.136021375656128,-413.0,1.0,72.0
2026-08-24 22:57:22.776310,14.144261121749878,-423.0,0.0,72.0
2026-08-24 22:57:22.783767,14.15171766281128,-415.0,0.0,72.0
2026-08-24 22:57:22.792083,14.160033941268921,-391.0,-1.0,72.0
2026-08-24 22:57:22.799282,14.167232513427734,-417.0,-1.0,72.0
2026-08-24 22:57:22.807628,14.175579071044922,-391.0,-2.0,72.0
2026-08-24 22:57:22.815637,14.183588027954102,-408.0,-3.0,72.0
2026-08-24 22:57:22.823735,14.191686391830444,-409.0,-3.0,72.0
2026-08-24 22:57:22.832411,14.200361967086792,-388.0,-4.0,72.0
2026-08-24 22:57:22.840172,14.208123445510864,-414.0,-5.0,72.0
2026-08-24 22:57:22.847784,14.21573543548584,-388.0,-5.0,72.0
2026-08-24 22:57:22.855615,14.22356653213501,-398.0,-5.0,72.0
2026-08-24 22:57:22.863921,14.231871604919434,-406.0,-6.0,72.0
2026-08-24 22:57:22.872250,14.240200996398926,-428.0,-6.0,72.0
2026-08-24 22:57:22.880254,14.248204708099365,-538.0,-8.0,72.0
2026-08-24 22:57:22.888233,14.256184101104736,-631.0,-10.0,72.0
2026-08-24 22:57:22.895659,14.263610124588013,-612.0,-12.0,72.0
2026-08-24 22:57:22.903997,14.271948337554932,-470.0,-14.0,72.0
2026-08-24 22:57:22.911822,14.279773235321045,-360.0,-16.0,72.0
2026-08-24 22:57:22.919746,14.287697315216064,-394.0,-18.0,72.0
2026-08-24 22:57:22.927666,14.295617580413818,-387.0,-19.0,73.0
2026-08-24 22:57:22.935483,14.303433656692505,-411.0,-20.0,73.0
2026-08-24 22:57:22.943898,14.311849594116211,-405.0,-19.0,73.0
2026-08-24 22:57:22.951861,14.319812536239624,-392.0,-18.0,73.0
2026-08-24 22:57:22.960381,14.328332424163818,-423.0,-18.0,73.0
2026-08-24 22:57:22.967704,14.335655212402344,-400.0,-16.0,73.0
2026-08-24 22:57:22.976224,14.344175100326538,-425.0,-13.0,73.0
2026-08-24 22:57:22.984368,14.352319240570068,-425.0,-10.0,73.0
2026-08-24 22:57:22.992555,14.360506057739258,-410.0,-7.0,73.0
2026-08-24 22:57:23.000083,14.36803388595581,-438.0,-3.0,73.0
2026-08-24 22:57:23.008601,14.376551866531372,-413.0,1.0,73.0
2026-08-24 22:57:23.016171,14.384121894836426,-435.0,2.0,73.0
2026-08-24 22:57:23.023760,14.391711235046387,-428.0,4.0,73.0
2026-08-24 22:57:23.031724,14.399674654006958,-419.0,5.0,73.0
2026-08-24 22:57:23.040377,14.408328294754028,-451.0,5.0,73.0
2026-08-24 22:57:23.047806,14.415756940841675,-431.0,4.0,73.0
2026-08-24 22:57:23.055589,14.423539876937866,-460.0,3.0,73.0
2026-08-24 22:57:23.063850,14.431801080703735,-461.0,3.0,73.0
2026-08-24 22:57:23.071987,14.439937591552734,-454.0,2.0,73.0
2026-08-24 22:57:23.080015,14.44796633720398,-486.0,3.0,73.0
2026-08-24 22:57:23.087748,14.45569920539856,-467.0,3.0,73.0
2026-08-24 22:57:23.096252,14.464202880859375,-497.0,4.0,73.0
2026-08-24 22:57:23.103550,14.471501350402832,-493.0,4.0,73.0
2026-08-24 22:57:23.111384,14.479334831237793,-487.0,3.0,73.0
2026-08-24 22:57:23.119923,14.487874507904053,-517.0,2.0,73.0
2026-08-24 22:57:23.128384,14.496335744857788,-492.0,1.0,73.0
2026-08-24 22:57:23.135419,14.503369569778442,-515.0,1.0,73.0
2026-08-24 22:57:23.144470,14.512420654296875,-506.0,1.0,73.0
2026-08-24 22:57:23.151715,14.519666194915771,-484.0,1.0,73.0
2026-08-24 22:57:23.159735,14.52768588066101,-492.0,1.0,73.0
2026-08-24 22:57:23.168561,14.53651213645935,-453.0,1.0,73.0
2026-08-24 22:57:23.176678,14.544628858566284,-461.0,2.0,73.0
2026-08-24 22:57:23.183709,14.55165982246399,-436.0,3.0,73.0
2026-08-24 22:57:23.192988,14.560939311981201,-418.0,3.0,73.0
2026-08-24 22:57:23.200810,14.568760633468628,-433.0,2.0,73.0
2026-08-24 22:57:23.208842,14.576793432235718,-405.0,1.0,73.0
2026-08-24 22:57:23.216844,14.584794998168945,-424.0,1.0,73.0
2026-08-24 22:57:23.224292,14.592242956161499,-416.0,1.0,73.0
2026-08-24 22:57:23.232322,14.60027289390564,-408.0,1.0,73.0
2026-08-24 22:57:23.240458,14.608408689498901,-425.0,1.0,73.0
2026-08-24 22:57:23.248740,14.61669135093689,-401.0,2.0,73.0
2026-08-24 22:57:23.259775,14.627725601196289,-423.0,2.0,73.0
2026-08-24 22:57:23.264777,14.632727861404419,-408.0,2.0,73.0
2026-08-24 22:57:23.272296,14.640246868133545,-404.0,2.0,73.0
2026-08-24 22:57:23.280818,14.64876937866211,-426.0,2.0,73.0
2026-08-24 22:57:23.289327,14.657278537750244,-402.0,1.0,73.0
2026-08-24 22:57:23.296339,14.664289951324463,-429.0,1.0,73.0
2026-08-24 22:57:23.304864,14.67281460762024,-418.0,1.0,73.0
2026-08-24 22:57:23.312715,14.680666208267212,-412.0,1.0,73.0
2026-08-24 22:57:23.320465,14.688416242599487,-429.0,1.0,73.0
2026-08-24 22:57:23.328501,14.696452379226685,-405.0,1.0,73.0
2026-08-24 22:57:23.336543,14.70449423789978,-426.0,1.0,73.0
2026-08-24 22:57:23.344990,14.712941408157349,-409.0,2.0,73.0
2026-08-24 22:57:23.352861,14.720812320709229,-406.0,1.0,73.0
2026-08-24 22:57:23.361052,14.729003667831421,-423.0,0.0,73.0
2026-08-24 22:57:23.369005,14.736955881118774,-398.0,-1.0,73.0
2026-08-24 22:57:23.376530,14.744481325149536,-424.0,-3.0,73.0
2026-08-24 22:57:23.385084,14.753035306930542,-412.0,-3.0,73.0
2026-08-24 22:57:23.392976,14.760927200317383,-410.0,-3.0,73.0
2026-08-24 22:57:23.400983,14.76893401145935,-422.0,-4.0,73.0
2026-08-24 22:57:23.409504,14.777454614639282,-396.0,-4.0,73.0
2026-08-24 22:57:23.417365,14.785315752029419,-420.0,-2.0,73.0
2026-08-24 22:57:23.424886,14.792837381362915,-399.0,0.0,73.0
2026-08-24 22:57:23.432404,14.800355195999146,-400.0,1.0,73.0
2026-08-24 22:57:23.440430,14.808380842208862,-418.0,2.0,73.0
2026-08-24 22:57:23.448690,14.816640853881836,-392.0,2.0,73.0
2026-08-24 22:57:23.456953,14.824903964996338,-418.0,1.0,73.0
2026-08-24 22:57:23.464383,14.832334280014038,-406.0,1.0,73.0
2026-08-24 22:57:23.472907,14.840858459472656,-404.0,1.0,73.0
2026-08-24 22:57:23.481057,14.849007606506348,-417.0,2.0,73.0
2026-08-24 22:57:23.488719,14.856670379638672,-393.0,3.0,73.0
2026-08-24 22:57:23.496709,14.864660024642944,-418.0,2.0,73.0
2026-08-24 22:57:23.505040,14.872990608215332,-398.0,1.0,73.0
2026-08-24 22:57:23.512261,14.880212545394897,-402.0,-7.0,73.0
2026-08-24 22:57:23.520409,14.888359785079956,-418.0,-32.0,73.0
2026-08-24 22:57:23.529211,14.897161722183228,-397.0,-57.0,73.0
2026-08-24 22:57:23.537269,14.905220031738281,-426.0,-50.0,73.0
2026-08-24 22:57:23.544966,14.912917137145996,-416.0,-14.0,73.0
2026-08-24 22:57:23.552741,14.920692205429077,-423.0,11.0,73.0
2026-08-24 22:57:23.561217,14.929167747497559,-432.0,9.0,73.0
2026-08-24 22:57:23.569341,14.937292337417603,-404.0,2.0,73.0
2026-08-24 22:57:23.577508,14.945459604263306,-424.0,1.0,73.0
2026-08-24 22:57:23.585245,14.953196048736572,-395.0,1.0,73.0
2026-08-24 22:57:23.592730,14.960681200027466,-400.0,0.0,73.0
2026-08-24 22:57:23.601149,14.96910047531128,-409.0,0.0,73.0
2026-08-24 22:57:23.609691,14.97764253616333,-384.0,-2.0,73.0
2026-08-24 22:57:23.617342,14.9852933883667,-412.0,-3.0,73.0
2026-08-24 22:57:23.624902,14.992852926254272,-396.0,-3.0,73.0
2026-08-24 22:57:23.633444,15.001395463943481,-401.0,-3.0,73.0
2026-08-24 22:57:23.640445,15.00839614868164,-405.0,-4.0,73.0
2026-08-24 22:57:23.648971,15.016921997070312,-382.0,-5.0,73.0
2026-08-24 22:57:23.657012,15.024962902069092,-429.0,-5.0,73.0
2026-08-24 22:57:23.664536,15.032486915588379,-454.0,-4.0,73.0
2026-08-24 22:57:23.672530,15.040481567382812,-574.0,-4.0,73.0
2026-08-24 22:57:23.681629,15.049579620361328,-658.0,-6.0,73.0
2026-08-24 22:57:23.688705,15.056655883789062,-546.0,-8.0,73.0
2026-08-24 22:57:23.697789,15.06574034690857,-432.0,-10.0,73.0
2026-08-24 22:57:23.705280,15.073231220245361,-356.0,-11.0,73.0
2026-08-24 22:57:23.714313,15.082264423370361,-382.0,-12.0,73.0
2026-08-24 22:57:23.722114,15.090065479278564,-405.0,-14.0,73.0
2026-08-24 22:57:23.729272,15.097223281860352,-389.0,-16.0,73.0
2026-08-24 22:57:23.737689,15.105639696121216,-416.0,-18.0,73.0
2026-08-24 22:57:23.745662,15.11361289024353,-392.0,-18.0,73.0
2026-08-24 22:57:23.753868,15.121818780899048,-408.0,-19.0,73.0
2026-08-24 22:57:23.761196,15.129147052764893,-419.0,-20.0,73.0
2026-08-24 22:57:23.769702,15.137653350830078,-400.0,-21.0,73.0
2026-08-24 22:57:23.778164,15.14611530303955,-427.0,-21.0,73.0
2026-08-24 22:57:23.786179,15.15412974357605,-413.0,-20.0,73.0
2026-08-24 22:57:23.794010,15.161961317062378,-426.0,-17.0,73.0
2026-08-24 22:57:23.801543,15.169494390487671,-431.0,-13.0,73.0
2026-08-24 22:57:23.809536,15.17748737335205,-415.0,-10.0,73.0
2026-08-24 22:57:23.817743,15.185694217681885,-441.0,-6.0,73.0
2026-08-24 22:57:23.826066,15.1940176486969,-420.0,-1.0,73.0
2026-08-24 22:57:23.833422,15.201372861862183,-438.0,1.0,73.0
2026-08-24 22:57:23.841942,15.209892749786377,-447.0,2.0,73.0
2026-08-24 22:57:23.849836,15.217787265777588,-435.0,4.0,73.0
2026-08-24 22:57:23.858034,15.225985050201416,-464.0,3.0,73.0
2026-08-24 22:57:23.865870,15.233820676803589,-455.0,2.0,73.0
2026-08-24 22:57:23.873664,15.241615295410156,-475.0,3.0,73.0
2026-08-24 22:57:23.881659,15.24960970878601,-484.0,3.0,73.0
2026-08-24 22:57:23.889996,15.257947444915771,-477.0,2.0,73.0
2026-08-24 22:57:23.897912,15.265863180160522,-506.0,3.0,73.0
2026-08-24 22:57:23.905430,15.273380994796753,-485.0,3.0,73.0
2026-08-24 22:57:23.913330,15.281280755996704,-504.0,3.0,73.0
